{"dataframe": [[32768, 32768, 32768, 32768, 32768, 32768, 32768, 32768, 32768, 32768, 32768, 32768, 32768, 32768, 32768, 32768, 32768, 32768, 32768, 32768, 32768, 32768, 32768, 32768, 32768, 32768, 32768, 32768, 32768, 32768, 32768, 32768, 32768, 32768, 32768, 32768, 32768, 32768, 32768, 32768, 32768, 32768, 32768, 32768, 32768, 32768, 31929, 32129, 33078, 33815, 33669, 33385, 33273, 33128, 33187, 33286, 33086, 33083, 33372, 33023, 31727, 30320, 29896, 31078, 33116, 34357, 34423, 34212, 33816, 32873, 32276, 32996, 34026, 33880, 32892, 31998, 31245, 30759, 30941, 31614, 32557, 33735, 34420, 34048, 33474, 33432, 33276, 32634, 32332, 32847, 33371, 33007, 32061, 31477, 31509, 31801, 32219, 32817, 33471, 33861], [32768, 32768, 32768, 32768, 32768, 32768, 32768, 32768, 32768, 32768, 32768, 32768, 32768, 32768, 32768, 32768, 32768, 32768, 32768, 32768, 32768, 32768, 32768, 32768, 32768, 32768, 32768, 32768, 32768, 32768, 32768, 32768, 32768, 32768, 32768, 32768, 32768, 32768, 32768, 32768, 32768, 32768, 32768, 32768, 32768, 32768, 17682, 5407, 5547, 15083, 23788, 27397, 28668, 27587, 23837, 23459, 32742, 49396, 63719, 65535, 60828, 49040, 34106, 15714, 2443, 5542, 18668, 25988, 26004, 25624, 25292, 24774, 28423, 39594, 55177, 65535, 65535, 57409, 44417, 26209, 8067, 1676, 9690, 21188, 27525, 29694, 29218, 26291, 24241, 27636, 39395, 56640, 65535, 65535, 55301, 38910, 19527, 4059, 3852, 15889], [32768, 32768, 32768, 32768, 32768, 32768, 32768, 32768, 32768, 32768, 32768, 32768, 32768, 32768, 32768, 32768, 32768, 32768, 32768, 32768, 32768, 32768, 32768, 32768, 32768, 32768, 32768, 32768, 32768, 32768, 32768, 32768, 32768, 32768, 32768, 32768, 32768, 32768, 32768, 32768, 32768, 32768, 32768, 32768, 32768, 32768, 41819, 49341, 48445, 42274, 37845, 36351, 35477, 35895, 37682, 37189, 31588, 22318, 14349, 12414, 16783, 24728, 34848, 45326, 50454, 46689, 39434, 35547, 35202, 36814, 39307, 38800, 33411, 26046, 18898, 13894, 14396, 20255, 28486, 38238, 47353, 49874, 44601, 38314, 35529, 34673, 34959, 36705, 37545, 34604, 27289, 18277, 13018, 14701, 21342, 30357, 40847, 48878, 48655, 41996], [32768, 32768, 32768, 32768, 32768, 32768, 32768, 32768, 32768, 32768, 32768, 32768, 32768, 32768, 32768, 32768, 32768, 32768, 32768, 32768, 32768, 32768, 32768, 32768, 32768, 32768, 32768, 32768, 32768, 32768, 32768, 32768, 32768, 32768, 32768, 32768, 32768, 32768, 32768, 32768, 32768, 32768, 32768, 32768, 32768, 32768, 28786, 26686, 27886, 30743, 32268, 32580, 32909, 32643, 31626, 31530, 33389, 36269, 38435, 38727, 36972, 33727, 30061, 27454, 27267, 29334, 31737, 33047, 33231, 32339, 30997, 30931, 32725, 35256, 37453, 38399, 37455, 35223, 32599, 29806, 27697, 27873, 30104, 32134, 32870, 32877, 32401, 31677, 31523, 32549, 34851, 37429, 38423, 37326, 35140, 32313, 29140, 27305, 28297, 30913], [32768, 32768, 32768, 32768, 32768, 32768, 32768, 32768, 32768, 32768, 32768, 32768, 32768, 32768, 32768, 32768, 32768, 32768, 32768, 32768, 32768, 32768, 32768, 32768, 32768, 32768, 32768, 32768, 32768, 32768, 32768, 32768, 32768, 32768, 32768, 32768, 32768, 32768, 32768, 32768, 32768, 32768, 32768, 32768, 32768, 32768, 30761, 29428, 29804, 31285, 32394, 32987, 33622, 33613, 32358, 31166, 31554, 33284, 35292, 36611, 36194, 34065, 31879, 30678, 30124, 30327, 31471, 32538, 32856, 32893, 32581, 31677, 31295, 32460, 34415, 35889, 36359, 35677, 34157, 32540, 31034, 29848, 29921, 31227, 32259, 32325, 32132, 32074, 31985, 32301, 33682, 35565, 36624, 36390, 35141, 33107, 30759, 29121, 29135, 30616], [32768, 32768, 32768, 32768, 32768, 32768, 32768, 32768, 32768, 32768, 32768, 32768, 32768, 32768, 32768, 32768, 32768, 32768, 32768, 32768, 32768, 32768, 32768, 32768, 32768, 32768, 32768, 32768, 32768, 32768, 32768, 32768, 32768, 32768, 32768, 32768, 32768, 32768, 32768, 32768, 32768, 32768, 32768, 32768, 32768, 32768, 37809, 39275, 37693, 34626, 32747, 32270, 32211, 32736, 33615, 33616, 32075, 29280, 26788, 26640, 28777, 31787, 35455, 39089, 39935, 37013, 33496, 32128, 32116, 32451, 33259, 33752, 32966, 30916, 28223, 26551, 27359, 29930, 33058, 36642, 39570, 39386, 36123, 33065, 32108, 32057, 32044, 32558, 33364, 33183, 31031, 27799, 26190, 27641, 30804, 34274, 37846, 40085, 38754, 34946], [32768, 32768, 32768, 32768, 32768, 32768, 32768, 32768, 32768, 32768, 32768, 32768, 32768, 32768, 32768, 32768, 32768, 32768, 32768, 32768, 32768, 32768, 32768, 32768, 32768, 32768, 32768, 32768, 32768, 32768, 32768, 32768, 32768, 32768, 32768, 32768, 32768, 32768, 32768, 32768, 32768, 32768, 32768, 32768, 32768, 32768, 47409, 43938, 34139, 28197, 29659, 31780, 32281, 34256, 35608, 32253, 25426, 20056, 20333, 26105, 33533, 40330, 46405, 48451, 41880, 31265, 26880, 29096, 31327, 33223, 36022, 35755, 29936, 22171, 18660, 22279, 29721, 36422, 41918, 46664, 46616, 38617, 29712, 28388, 31110, 31951, 33004, 34847, 33140, 27132, 21069, 19916, 24970, 32417, 38643, 43840, 47385, 44641, 34988, 27582], [32768, 32768, 32768, 32768, 32768, 32768, 32768, 32768, 32768, 32768, 32768, 32768, 32768, 32768, 32768, 32768, 32768, 32768, 32768, 32768, 32768, 32768, 32768, 32768, 32768, 32768, 32768, 32768, 32768, 32768, 32768, 32768, 32768, 32768, 32768, 32768, 32768, 32768, 32768, 32768, 32768, 32768, 32768, 32768, 32768, 32768, 39857, 51972, 54095, 47482, 40874, 38469, 37456, 36940, 38268, 38718, 33267, 21831, 10919, 6844, 10171, 18805, 31690, 46150, 55267, 53515, 44875, 38179, 35511, 34314, 35449, 39044, 39490, 32191, 20223, 10729, 7979, 12052, 21758, 35617, 49234, 54851, 49451, 40655, 36530, 35877, 35641, 37021, 39430, 38085, 29837, 17722, 8915, 8044, 14223, 25008, 38903, 51486, 55139, 48742]], "framecount": 0.0, "time": 1489540131413}
{"dataframe": [[33719, 33126, 32476, 32389, 33359, 34442, 33826, 32071, 31528, 32128, 32048, 31519, 31973, 33172, 33689, 32946, 32087, 32542, 33605, 33543, 32811, 33009, 33809, 33913, 33246, 32475, 32010, 31804, 31452, 31082, 31516, 32738, 33645, 33745, 33552, 33370, 33134, 33096, 33435, 33755, 33654, 32998, 31815, 30763, 30785, 31769, 32767, 33456, 33772, 32979, 31508, 31855, 34294, 35343, 33869, 32823, 33086, 32834, 32188, 31998, 31496, 30975, 31608, 32508, 32882, 33633, 34313, 33707, 32833, 32877, 32989, 32680, 32835, 33428, 33369, 32603, 32171, 32210, 31747, 30974, 31393, 32959, 33905, 33734, 33522, 33588, 33426, 33103, 32967, 32971, 32838, 32334, 31846, 32139, 32872, 32885, 31923, 30948, 31508, 33684], [24577, 25896, 27180, 28455, 25569, 23161, 30876, 49462, 65535, 65535, 59399, 46310, 31367, 14362, 3258, 7519, 20956, 28191, 27755, 27955, 27917, 24132, 23362, 33433, 50817, 64452, 65535, 59835, 46695, 29282, 11277, 2995, 9723, 21178, 26318, 27376, 28127, 25975, 22645, 26182, 39508, 56454, 65535, 65535, 57776, 38573, 18574, 4922, 4692, 15805, 25388, 27371, 27071, 26893, 25220, 24176, 28699, 42512, 61023, 65535, 65014, 51294, 34900, 16684, 4253, 6057, 16209, 23312, 27076, 30175, 28855, 23891, 23918, 33709, 49785, 63832, 65535, 60676, 47204, 30180, 12121, 2542, 8366, 20524, 26773, 28143, 28786, 26711, 23346, 26006, 37884, 53564, 64390, 65535, 59322, 45004, 25549, 8473, 2564, 9163], [36992, 36086, 36151, 36424, 37142, 36386, 31980, 23676, 15430, 12965, 17031, 24497, 33842, 43678, 49547, 47640, 40563, 35089, 34222, 35649, 37012, 37858, 36803, 31251, 22005, 14598, 13092, 16968, 24968, 35982, 46188, 50035, 46048, 39642, 36406, 35839, 35805, 36622, 37472, 34992, 27493, 18173, 12742, 14028, 20572, 29900, 40105, 47564, 47958, 43325, 40453, 39012, 34488, 31130, 34283, 38000, 35015, 26816, 18057, 12781, 14461, 22354, 32469, 42399, 49031, 48073, 41933, 37621, 35872, 34288, 34708, 37187, 36906, 31347, 22725, 15418, 13626, 17943, 25608, 34988, 44661, 49460, 45963, 39429, 36315, 35809, 35518, 36110, 36958, 35200, 29446, 21555, 15338, 13573, 16946, 25462, 38121, 49831, 52330, 44271], [32551, 32477, 31862, 31602, 31855, 32526, 33737, 35845, 37980, 38369, 36785, 34063, 30694, 27934, 27453, 29102, 31294, 32890, 33375, 32707, 31748, 31385, 31752, 33324, 36267, 38541, 38262, 36304, 33818, 30691, 27878, 27479, 29534, 31586, 32218, 32266, 32288, 31980, 31776, 32690, 34970, 37469, 38513, 37587, 35315, 32300, 29231, 27552, 28491, 30647, 31236, 31026, 32592, 34179, 33029, 31493, 32731, 35436, 37156, 37642, 36953, 34710, 31596, 28841, 27616, 28860, 31291, 32417, 32396, 32614, 32491, 31641, 31607, 33467, 36265, 38059, 37819, 36154, 33904, 31109, 28333, 27482, 29295, 31620, 32529, 32556, 32401, 32021, 31966, 32766, 34129, 35725, 37331, 38078, 36942, 33994, 30089, 26755, 26694, 30328], [32112, 32618, 32695, 32997, 33112, 32718, 32603, 33628, 35217, 36042, 35716, 34513, 32565, 30433, 29267, 29670, 30958, 32162, 33027, 33301, 32751, 32084, 32024, 32731, 34341, 36050, 36327, 35196, 33783, 32170, 30268, 29336, 30187, 31664, 32617, 33082, 32962, 32214, 31713, 32161, 33384, 34816, 35717, 35813, 35404, 34185, 31771, 29508, 29354, 31012, 32354, 32506, 32346, 32310, 32019, 31758, 32480, 34073, 35217, 35480, 35460, 34969, 33395, 31157, 29589, 29876, 31577, 32744, 32660, 32408, 32368, 31973, 31567, 32137, 33751, 35534, 36624, 36417, 34792, 32511, 30539, 29428, 29674, 31119, 32432, 32739, 32595, 32610, 32686, 32744, 33203, 34403, 35644, 35704, 34584, 33256, 31832, 30273, 29934, 31283], [32286, 31722, 31761, 32187, 33292, 33868, 32514, 29494, 26878, 26739, 29006, 32186, 35545, 38593, 39514, 37054, 33406, 31811, 32140, 32431, 32671, 33552, 33943, 32243, 28931, 26465, 26716, 29214, 32545, 36196, 39302, 39524, 36358, 33087, 32124, 32210, 32233, 32791, 33572, 33187, 31088, 28272, 26566, 27269, 30284, 34264, 37685, 39327, 38092, 34839, 32699, 32523, 32207, 31772, 32813, 34173, 33537, 30656, 27260, 25911, 27785, 31354, 34898, 38048, 39581, 37928, 34653, 32689, 32083, 31764, 32247, 33451, 33722, 32118, 29240, 26775, 26597, 28920, 32364, 36036, 39210, 39800, 36949, 33548, 32182, 31861, 31637, 32362, 33636, 33620, 31613, 28728, 26809, 27023, 29260, 32854, 36938, 39764, 39370, 36264], [28506, 31797, 32747, 34058, 35141, 31883, 24896, 19414, 20237, 27052, 34905, 40911, 45952, 48045, 42202, 31337, 26188, 29121, 32348, 32857, 33474, 33854, 31198, 25311, 20423, 21511, 27904, 35284, 42318, 48420, 48392, 38968, 28304, 26164, 29394, 31128, 32735, 35444, 35197, 29940, 22829, 19665, 23275, 30351, 37208, 43798, 48567, 45884, 35073, 26502, 27769, 32183, 32822, 33044, 34738, 33201, 26797, 20752, 20747, 26457, 33365, 39221, 44496, 47170, 42652, 32859, 27606, 29785, 32023, 32027, 33599, 35050, 31831, 24931, 20124, 21775, 28160, 34646, 40204, 45523, 46786, 39954, 30856, 28708, 31417, 32263, 32570, 34366, 33940, 28942, 22336, 19851, 24007, 30731, 36145, 41508, 46761, 46225, 37535, 29163], [40682, 36831, 35322, 34758, 36175, 37655, 34491, 24858, 13695, 8499, 11494, 19868, 31585, 45097, 54313, 52515, 43173, 36138, 33785, 33132, 34955, 39360, 41006, 35171, 23457, 12545, 8277, 11338, 19789, 32658, 46974, 54856, 51355, 42710, 37704, 36169, 34912, 35378, 38060, 37921, 30263, 18093, 10035, 10315, 16004, 24711, 36962, 49364, 53828, 48054, 39604, 35055, 33801, 34724, 38141, 41081, 38384, 28335, 15688, 8082, 8745, 15785, 27527, 42502, 54125, 54173, 44788, 36741, 34281, 34095, 36022, 41137, 43965, 37522, 23528, 11274, 6969, 9275, 15862, 28109, 45127, 57222, 55172, 44768, 38610, 37651, 35446, 32209, 32191, 33825, 30549, 20978, 12867, 12913, 19033, 27406, 38222, 49016, 51898, 44766]], "framecount": 1.0, "time": 1489540131632}
{"dataframe": [[34787, 33522, 32643, 33646, 34240, 33359, 32569, 32463, 32341, 31915, 31288, 31042, 31891, 33236, 33801, 33626, 33455, 33272, 32916, 32650, 32601, 32722, 33059, 33451, 33436, 32848, 32134, 31775, 31736, 31820, 32121, 32731, 33304, 33414, 33144, 32876, 32945, 33548, 34294, 34347, 33357, 31776, 30810, 31480, 32572, 32243, 31621, 32210, 32657, 32441, 33161, 34284, 34013, 33252, 33595, 34221, 33842, 32822, 31968, 31332, 30917, 31011, 31462, 32050, 33013, 33951, 34110, 34027, 34147, 33526, 32351, 32196, 32678, 32374, 32101, 32824, 33193, 32530, 32079, 32153, 32264, 32752, 33393, 33259, 32663, 32511, 32843, 33435, 33985, 33680, 32376, 31448, 32010, 33176, 33417, 32862, 32654, 32549, 31665, 30958], [20687, 29122, 31404, 27323, 20493, 19476, 30340, 48692, 63253, 65535, 63440, 52922, 36344, 16871, 3398, 4452, 15970, 24902, 27601, 28902, 28400, 24942, 24398, 32687, 48356, 62913, 65535, 61554, 48851, 31704, 12997, 2368, 7082, 19337, 26694, 28621, 29047, 26328, 21994, 24423, 37437, 54518, 65389, 65352, 58237, 48043, 31775, 10766, 0, 6883, 19418, 24756, 26714, 28970, 27164, 23382, 27788, 43049, 59687, 65535, 65535, 55435, 38785, 20124, 5101, 2297, 12997, 24231, 27259, 27562, 28018, 25555, 24230, 31909, 47730, 62301, 65535, 62603, 50615, 33587, 14672, 2861, 5930, 17773, 25739, 28057, 29016, 27396, 23500, 24421, 34909, 51394, 65082, 65535, 61008, 46197, 27014, 9225, 3442, 11460], [35719, 34212, 35795, 36559, 38124, 38826, 34043, 24560, 16035, 12814, 15676, 22683, 31318, 40594, 48121, 48623, 42523, 37589, 36581, 35985, 35761, 37085, 36683, 31459, 22814, 15196, 12883, 16700, 24418, 34323, 44622, 50211, 47225, 40260, 36451, 35705, 35249, 35964, 37389, 35597, 29426, 22146, 16683, 13890, 15257, 22773, 35264, 47323, 52457, 48772, 41416, 36277, 34250, 34264, 35816, 36893, 34158, 26429, 17381, 12969, 15239, 21731, 30456, 40735, 48888, 49274, 42885, 37364, 35766, 35293, 35541, 37128, 37038, 32218, 23643, 15839, 13356, 16689, 23567, 33009, 43580, 49848, 47515, 40759, 36666, 35651, 35171, 35885, 37704, 37193, 31571, 21823, 13069, 11060, 16495, 26039, 37446, 47632, 50629, 45568], [33356, 32954, 31765, 31761, 31564, 31265, 32693, 35627, 38112, 38768, 37327, 34628, 31876, 29353, 27563, 28127, 30646, 32208, 32117, 32114, 32297, 31916, 32011, 33762, 36403, 38181, 38140, 36558, 34032, 30923, 28088, 27244, 29051, 31505, 32467, 32387, 32373, 32214, 31940, 32568, 34341, 36123, 37167, 37689, 37144, 34513, 30590, 27604, 26955, 28396, 30694, 32652, 33517, 33135, 32239, 31836, 32632, 34934, 37610, 38405, 36866, 34640, 32329, 29428, 27348, 28200, 30775, 32193, 32346, 32536, 32435, 31774, 31770, 33313, 35928, 38133, 38414, 36728, 34153, 31206, 28360, 27326, 28976, 31239, 32124, 32382, 32800, 32568, 31709, 31639, 33309, 36323, 38870, 38920, 36512, 33363, 30274, 27658, 27211, 29309], [32301, 32026, 32012, 32609, 32417, 31598, 31678, 33118, 35190, 36685, 36621, 35313, 33695, 31835, 29906, 29228, 30256, 31518, 32050, 32388, 32682, 32428, 31989, 32529, 34309, 36043, 36557, 35972, 34636, 32573, 30358, 29176, 29687, 31192, 32349, 32681, 32681, 32640, 32306, 31955, 32705, 34675, 36204, 36102, 34919, 33467, 31927, 30546, 30030, 30664, 31670, 32312, 32678, 32772, 32394, 31936, 32158, 33425, 35142, 35970, 35470, 34568, 33528, 31681, 29756, 29467, 30610, 31560, 32039, 32671, 33115, 32924, 32720, 33224, 34438, 35805, 36373, 35423, 33337, 31263, 29947, 29581, 30282, 31614, 32537, 32834, 33170, 33396, 32888, 32220, 32512, 33796, 35106, 35560, 34999, 33864, 32515, 31007, 29958, 30304], [33307, 31872, 31399, 32036, 33585, 34129, 32516, 29697, 27295, 26597, 28077, 31107, 34729, 38165, 39861, 38257, 34745, 32434, 31828, 31712, 32232, 33431, 33828, 32359, 29547, 27002, 26517, 28593, 32088, 35785, 38830, 39602, 37181, 33815, 32198, 31899, 31808, 32509, 33779, 33732, 31603, 28788, 27091, 27251, 29040, 32046, 35888, 39273, 39847, 37091, 33845, 32369, 31881, 31720, 32534, 33631, 33086, 30507, 27584, 26319, 27554, 30683, 34363, 37741, 39881, 38950, 35315, 32521, 31937, 31774, 31899, 33105, 33851, 32477, 29631, 27184, 26801, 28772, 31858, 35139, 38299, 39643, 37517, 33905, 32089, 31953, 32014, 32659, 33921, 34066, 32028, 28720, 26213, 26348, 29141, 32983, 36683, 39355, 39260, 36284], [28618, 31215, 31819, 33430, 36253, 34613, 27004, 19200, 18173, 24573, 32670, 38717, 43966, 47793, 44940, 35346, 28749, 30021, 32276, 31870, 32554, 33742, 30900, 24370, 19800, 21684, 28265, 34864, 40462, 45827, 47364, 40853, 31343, 28096, 30400, 32071, 33238, 35148, 34540, 29227, 21782, 18242, 22305, 30277, 36870, 42083, 46814, 46785, 38757, 29967, 28849, 31367, 31343, 31692, 34007, 33606, 28433, 22111, 20197, 24708, 31796, 37767, 43113, 47026, 44449, 35148, 28490, 29639, 32217, 32349, 33413, 35039, 32858, 26180, 19314, 18180, 24440, 33732, 41817, 47828, 49587, 43229, 32226, 26607, 28067, 29837, 30805, 33549, 35299, 32324, 25951, 21218, 22158, 27894, 34815, 41236, 46441, 46575, 38604, 29324], [36211, 32919, 33000, 34503, 38483, 43254, 43256, 34444, 20089, 8863, 5929, 10388, 21005, 36767, 50760, 53643, 46849, 40695, 38864, 38299, 38959, 41346, 41806, 36105, 23980, 11081, 4923, 7303, 15068, 26746, 41532, 53032, 53768, 46826, 41513, 39546, 38216, 38981, 41861, 41138, 32353, 18194, 6505, 3193, 8159, 18969, 34089, 49428, 56751, 52466, 43896, 38568, 35071, 32537, 35832, 43254, 43452, 31481, 15932, 6529, 5334, 11062, 22825, 38349, 51786, 55699, 49501, 41719, 38165, 36779, 36411, 38277, 39583, 35090, 23990, 12115, 6545, 8934, 16947, 29438, 44473, 54801, 53766, 45305, 38581, 35561, 34095, 35429, 39396, 40727, 34778, 22933, 12028, 7968, 11037, 19238, 31715, 45606, 53645, 50968]], "framecount": 2.0, "time": 1489540131725}
{"dataframe": [[31569, 32551, 33219, 34177, 34955, 34762, 34352, 34101, 33197, 31738, 30386, 29417, 29768, 31811, 33633, 33790, 33454, 33744, 34074, 33966, 33667, 33265, 32944, 32980, 32968, 32407, 31581, 31022, 31111, 31952, 32764, 32745, 32647, 33579, 34824, 34782, 33473, 32317, 31928, 32019, 32647, 33533, 33486, 32264, 31342, 31631, 32264, 32443, 32582, 33008, 33334, 33478, 33513, 33034, 32416, 32901, 34223, 34505, 33097, 31556, 31301, 31732, 31663, 31289, 31584, 32765, 33986, 34308, 33804, 33276, 33125, 33203, 33300, 33325, 33130, 32563, 31889, 31523, 31400, 31402, 31833, 32828, 33866, 34192, 33625, 33116, 33519, 33615, 32171, 31034, 31938, 33301, 33780, 33841, 33053, 31611, 31483, 32305, 32467, 33119], [21234, 25390, 27317, 27305, 24036, 22783, 28248, 40564, 56809, 65535, 65535, 57050, 41828, 21309, 3398, 1988, 14949, 25356, 27407, 27898, 27646, 24289, 22903, 29922, 45074, 60968, 65535, 64330, 52838, 35766, 14996, 1023, 4668, 19169, 28325, 29370, 28870, 27101, 23381, 23259, 31686, 47202, 62497, 65535, 64496, 49810, 29282, 10832, 3783, 9454, 19043, 24739, 26978, 28052, 26945, 24028, 25053, 36353, 55044, 65535, 65535, 58431, 43106, 24107, 7004, 2262, 11088, 21671, 26350, 28343, 29017, 26215, 23720, 28753, 42824, 59202, 65535, 65127, 53648, 37509, 19016, 4963, 4037, 13676, 22661, 27264, 29471, 28203, 25735, 27971, 35719, 47214, 59533, 65365, 60408, 47600, 30202, 12917, 5235, 10172], [39551, 36901, 35634, 35200, 36435, 37083, 34208, 27050, 18160, 13208, 15081, 21007, 28917, 39400, 48806, 50016, 43519, 37571, 35681, 35128, 35362, 36931, 37100, 32919, 24783, 16636, 13364, 16249, 22906, 31889, 42804, 51100, 49935, 40823, 33586, 32682, 34234, 35999, 38687, 39674, 34309, 23076, 13333, 11562, 16616, 24592, 34788, 45283, 49902, 46319, 40422, 37224, 35647, 34993, 36330, 37636, 35391, 28621, 19731, 13716, 13934, 19208, 27605, 38461, 48068, 50035, 44175, 38044, 35943, 35365, 35195, 36618, 37483, 34022, 26044, 17570, 13387, 15178, 21606, 31024, 41513, 48649, 48126, 42684, 39096, 37378, 34253, 32916, 35799, 37042, 32148, 23970, 16614, 13406, 17084, 25528, 34386, 42880, 48628, 46810], [31463, 32221, 32500, 32558, 32084, 31844, 32749, 34923, 37480, 38662, 37582, 35163, 32419, 29496, 27308, 27599, 30001, 32017, 32658, 32823, 32711, 32051, 31727, 33072, 35871, 37997, 37894, 36378, 34632, 32203, 28667, 26144, 27433, 31372, 33932, 33969, 33211, 32225, 30930, 30620, 32647, 36361, 38950, 38326, 35919, 33849, 31480, 28465, 27315, 29147, 31329, 32098, 32525, 32768, 31983, 31340, 32474, 34908, 37126, 38104, 37538, 35695, 32967, 29853, 27589, 27763, 30108, 32149, 32532, 32331, 32282, 31949, 31736, 32834, 35231, 37489, 38351, 37522, 35200, 31899, 28718, 27310, 28557, 30789, 31686, 31910, 32955, 33431, 32205, 31518, 33234, 35984, 37667, 37503, 35806, 33732, 31967, 29973, 28460, 29116], [31544, 32280, 32453, 32728, 32707, 31944, 31517, 32625, 34664, 36161, 36362, 35300, 33580, 31864, 30402, 29758, 30593, 32045, 32626, 32502, 32451, 32152, 31671, 32252, 34064, 35617, 36048, 35687, 34744, 33200, 31254, 29605, 29501, 30943, 32101, 32350, 32541, 32375, 31792, 32182, 33631, 34909, 35659, 35792, 35147, 34169, 32804, 30718, 29332, 30076, 31542, 32118, 32538, 32981, 32319, 31391, 31978, 33516, 34614, 35273, 35619, 35207, 34040, 32486, 30927, 30228, 30867, 31788, 31952, 31805, 31888, 31992, 32173, 32847, 34071, 35471, 36360, 36140, 34934, 33189, 31086, 29330, 29241, 30802, 32254, 32470, 32113, 32065, 32207, 32306, 32980, 34623, 36212, 36564, 35684, 34018, 32036, 30593, 30247, 30611], [33339, 32212, 31893, 32017, 33035, 33942, 33322, 30906, 27826, 26349, 27601, 30360, 33602, 37302, 39790, 38637, 35096, 32869, 32484, 32144, 32074, 33004, 33683, 32720, 30146, 27317, 26320, 28040, 31390, 35113, 38472, 39950, 38098, 34323, 31863, 31551, 31755, 32033, 33215, 34403, 33287, 29756, 26678, 26285, 28338, 32026, 36397, 39349, 39137, 36489, 33702, 32169, 31780, 32060, 32822, 33845, 34013, 31761, 27941, 25888, 26996, 29769, 33282, 37320, 39992, 39153, 35819, 33054, 31936, 31582, 31826, 32844, 33796, 33323, 30751, 27517, 26382, 28044, 30980, 34369, 37847, 39482, 37771, 34739, 33178, 32596, 31893, 32135, 33274, 33327, 31830, 29632, 27443, 26864, 28977, 32298, 35350, 38126, 39320, 37362], [27974, 31388, 32420, 32955, 34940, 34216, 28824, 22201, 19665, 23617, 30768, 37113, 42766, 47465, 46016, 36460, 28053, 28352, 31481, 31927, 33042, 35041, 33168, 27016, 21106, 20344, 25746, 33090, 38793, 43755, 47220, 43915, 34381, 28183, 29091, 30988, 31494, 33285, 34974, 32686, 26272, 20654, 21281, 27228, 33468, 39062, 45300, 47789, 41252, 31610, 28951, 31308, 31920, 32379, 34462, 33978, 28788, 22032, 19069, 22925, 30559, 37297, 42730, 47034, 45856, 37130, 29066, 29055, 31885, 31999, 32738, 34776, 33141, 26905, 20595, 19547, 25267, 33449, 39727, 44476, 47400, 43682, 33543, 27040, 28866, 31703, 31937, 33517, 35537, 32893, 25871, 20365, 21031, 26811, 33727, 39961, 45444, 47450, 41903, 32341], [42786, 37644, 36395, 35998, 36923, 39277, 38534, 30497, 17946, 8866, 8184, 14717, 25621, 39019, 51017, 54750, 48224, 39024, 34288, 33273, 34101, 37283, 40734, 39271, 30160, 17019, 7452, 6617, 14054, 26769, 42015, 54107, 55508, 47531, 39846, 36109, 33602, 33455, 37089, 39554, 35212, 24578, 13555, 8314, 10808, 19260, 31616, 45153, 53361, 50744, 42011, 36531, 35464, 35479, 37598, 41917, 42297, 33720, 19927, 9445, 6524, 10182, 19536, 34091, 48988, 55674, 51301, 43042, 38009, 35863, 35213, 37040, 39543, 37643, 28598, 15884, 6823, 6203, 13723, 26720, 41926, 53697, 55745, 48995, 41191, 36400, 34127, 35232, 38660, 39199, 33620, 23505, 13353, 7840, 9063, 17134, 30444, 43822, 51012, 49381]], "framecount": 3.0, "time": 1489540131835}
{"dataframe": [[34041, 32654, 30943, 32190, 33556, 32805, 33216, 35117, 34949, 33262, 32392, 31516, 30503, 30825, 31854, 32407, 32768, 32990, 33148, 33768, 34314, 34179, 33893, 33509, 32732, 32178, 31982, 31429, 30878, 31220, 32112, 33031, 34144, 34663, 33390, 31773, 32375, 34163, 34032, 32184, 31422, 32430, 33461, 33531, 33079, 32379, 31574, 31518, 32497, 33081, 32489, 32283, 33326, 34079, 33682, 33236, 33334, 33285, 32777, 32208, 31773, 31638, 31880, 32040, 32255, 33165, 33911, 33367, 32635, 32988, 33493, 33256, 33175, 33632, 33346, 32067, 31484, 32013, 32100, 31541, 31730, 32870, 33847, 33938, 33366, 32926, 32930, 32975, 33045, 33410, 33763, 33358, 31909, 30743, 31392, 32605, 32155, 31056, 31803, 33977], [19373, 26625, 31271, 30417, 24372, 20351, 23407, 35393, 54293, 65535, 65535, 58187, 44867, 26326, 7482, 1215, 10271, 22504, 28086, 28635, 27589, 25174, 23784, 28784, 42366, 58501, 65535, 65127, 54997, 39346, 20299, 4621, 802, 9896, 24041, 33571, 32891, 25695, 23061, 28595, 36298, 44930, 55542, 62005, 59986, 51624, 36704, 16525, 3267, 7228, 20085, 27408, 28381, 28177, 26015, 22677, 24749, 35647, 50755, 62264, 65535, 60702, 47742, 29132, 10581, 1878, 9061, 22978, 29372, 28222, 26671, 24743, 22348, 26049, 39872, 57122, 65535, 65404, 57727, 43969, 23019, 4237, 903, 11868, 23675, 29096, 30173, 28112, 23882, 22953, 30404, 45187, 60704, 65535, 64695, 51381, 34535, 17193, 4364, 4669], [40365, 36538, 35423, 34914, 36719, 39599, 38034, 29634, 18319, 11233, 12270, 18964, 27768, 38088, 47775, 51084, 46419, 39627, 35355, 33390, 33827, 36335, 37510, 34567, 27519, 18887, 13539, 14662, 20881, 29856, 40343, 48632, 49365, 43511, 38191, 36189, 34875, 34211, 35495, 35957, 32103, 24933, 18618, 15909, 16914, 21801, 31238, 42737, 49639, 47817, 41578, 37253, 35266, 34476, 35822, 37655, 36087, 30015, 21848, 15770, 14729, 18142, 24716, 34734, 45777, 50718, 46371, 39280, 36000, 35341, 35248, 36467, 37425, 34670, 27724, 19759, 14740, 14538, 19047, 27783, 39090, 48443, 50259, 44202, 37229, 34931, 35576, 36147, 36878, 37261, 33873, 25342, 16397, 13045, 16078, 22782, 31663, 41721, 48745, 47876], [30777, 31360, 31741, 32503, 32069, 30993, 31881, 34887, 37838, 39123, 38275, 35732, 32598, 29672, 27565, 27369, 29165, 31299, 32697, 33452, 33328, 32457, 31917, 32496, 34409, 36946, 38129, 36985, 34803, 32502, 29690, 27574, 28455, 31134, 32130, 31725, 32508, 33358, 32095, 31024, 32943, 35896, 37189, 37383, 37060, 35129, 31712, 28718, 27871, 29220, 30965, 31763, 32218, 32598, 32180, 31503, 31986, 33983, 36582, 38120, 37684, 36152, 34133, 31002, 27770, 27249, 29551, 31580, 32031, 32262, 32636, 32521, 32623, 33834, 35195, 35517, 35714, 36553, 36035, 32984, 29689, 28166, 28581, 30768, 33108, 33492, 32627, 32189, 31690, 30721, 31176, 34148, 37371, 38357, 37309, 35367, 32858, 30123, 28401, 28864], [30982, 31205, 31562, 31964, 32075, 32095, 32509, 33515, 34975, 36373, 36959, 36253, 34445, 32231, 30271, 29216, 29491, 30400, 31050, 31785, 32703, 32897, 32588, 32920, 34081, 35746, 37075, 36666, 34899, 33243, 31183, 28622, 28073, 29937, 31378, 32041, 33683, 34802, 33308, 31721, 32783, 34542, 34955, 35208, 35451, 34094, 31797, 30361, 29915, 30264, 31347, 32215, 32496, 32896, 33194, 32668, 32100, 32879, 34742, 36031, 35938, 35103, 33764, 31560, 29608, 29614, 30703, 30993, 31238, 32594, 33648, 33402, 33058, 33257, 33632, 34278, 35080, 35317, 34623, 33270, 31824, 30716, 30311, 30858, 31706, 31960, 31922, 32185, 32319, 32065, 32491, 34320, 36283, 36794, 35892, 34269, 32144, 30074, 29181, 29825], [34085, 32178, 31581, 31735, 32950, 34423, 34388, 31851, 27914, 25605, 26601, 29551, 33014, 36783, 39687, 39601, 36526, 33261, 31907, 31861, 32097, 32733, 33508, 33048, 30668, 27814, 26536, 27481, 30312, 34272, 37970, 39835, 38849, 35686, 32794, 31730, 31826, 32093, 32342, 32517, 32076, 30430, 28363, 27622, 28804, 31421, 35001, 38364, 39355, 37149, 33977, 32415, 32162, 32013, 32440, 33632, 33899, 31856, 28579, 26566, 27054, 29366, 32481, 35954, 39124, 40010, 37197, 33147, 31553, 32034, 32250, 32412, 33383, 33658, 31461, 28066, 26537, 27639, 29933, 33051, 37046, 39782, 38945, 35654, 33002, 32076, 32013, 32474, 33394, 33786, 32519, 29643, 26841, 26259, 28378, 31776, 35166, 38215, 39707, 37986], [28227, 30126, 31100, 31186, 33680, 35239, 31381, 23767, 18930, 21615, 29274, 36541, 42309, 46882, 46427, 38430, 29998, 28913, 31302, 31503, 32169, 34410, 33470, 27684, 21417, 20198, 25027, 31877, 37850, 43445, 47321, 44488, 35018, 28451, 29843, 32441, 32717, 34202, 35070, 30778, 23374, 18684, 20577, 27705, 34792, 39926, 45356, 48709, 43519, 32824, 27922, 29915, 30977, 30980, 33309, 34498, 30713, 23897, 19504, 21863, 29127, 36002, 41398, 46559, 47621, 40129, 30357, 28009, 30648, 31632, 32467, 34456, 33774, 28654, 21621, 18216, 22501, 31139, 38444, 44197, 48905, 47354, 37253, 27991, 27382, 30093, 31114, 33099, 35075, 32423, 25765, 20150, 20325, 26694, 34644, 40633, 45337, 47863, 43239, 32410], [42316, 37575, 39452, 43943, 45767, 45367, 43426, 34716, 17147, 847, 0, 1491, 11799, 28950, 50455, 64084, 62798, 53622, 45081, 38027, 32682, 31470, 32960, 32021, 25611, 15914, 8570, 7771, 14430, 27839, 44849, 57895, 59014, 49207, 38379, 32384, 29590, 30160, 35219, 39964, 37966, 28243, 15650, 7683, 8721, 17078, 30070, 45931, 57361, 55514, 44379, 35951, 32464, 30128, 31465, 38070, 42710, 38393, 26749, 14941, 8907, 10032, 16755, 27767, 41308, 51655, 53032, 48247, 44190, 41291, 37911, 36396, 36058, 31784, 23009, 14522, 10026, 10722, 16907, 27544, 40078, 50755, 54539, 49281, 40508, 35561, 35046, 36241, 39247, 42402, 37257, 19950, 3029, 788, 11351, 25719, 40301, 52758, 57757, 52326]], "framecount": 4.0, "time": 1489540131928}
{"dataframe": [[35339, 35037, 33716, 32768, 33023, 33126, 31746, 30583, 31602, 33344, 33548, 32748, 32459, 32569, 32530, 32700, 33188, 33277, 32729, 32201, 32129, 32387, 33018, 33980, 34477, 34127, 33516, 32498, 30810, 30052, 31203, 32522, 33012, 33623, 33994, 33163, 32352, 32836, 33552, 33455, 33338, 33672, 33500, 32646, 32102, 31847, 31323, 31085, 31479, 32105, 33082, 33880, 33467, 32981, 33617, 34028, 33810, 34366, 34854, 33382, 30960, 29605, 29596, 30525, 31903, 32979, 33697, 34415, 34745, 34428, 34025, 33584, 32755, 32008, 31769, 31853, 32274, 32653, 32171, 31474, 32018, 33367, 33984, 33761, 33279, 32458, 31643, 31756, 32737, 33801, 34628, 34873, 33962, 32314, 31133, 30687, 30498, 31024, 32810, 34421], [15737, 24251, 26677, 28000, 26972, 23720, 26226, 37973, 53138, 64059, 65535, 59158, 45356, 27715, 10956, 3317, 8844, 19659, 26778, 30745, 32071, 27880, 22287, 24189, 36726, 53822, 64317, 63553, 56443, 44974, 27283, 10434, 5943, 13030, 20959, 24854, 26633, 26152, 23634, 23765, 30736, 44561, 59849, 65535, 63820, 52806, 38067, 20259, 5911, 5271, 15778, 23718, 25122, 26056, 27200, 26162, 26132, 32738, 46974, 61389, 65535, 62911, 52192, 34002, 12800, 1534, 6697, 18556, 24948, 26242, 27253, 27093, 25695, 28102, 38334, 53874, 65535, 65535, 56870, 42512, 24714, 8041, 3347, 12683, 23307, 26868, 27927, 29042, 26969, 23648, 26421, 38805, 55899, 65535, 65535, 57014, 39852, 20550, 4737, 2063], [41424, 36952, 36681, 37064, 36534, 36129, 35136, 30645, 22289, 15183, 14175, 18454, 25587, 35146, 44970, 49383, 45857, 39574, 36080, 34961, 34971, 36663, 38074, 35589, 28358, 19414, 14014, 15320, 21625, 29541, 37622, 44577, 46828, 43012, 38212, 36850, 37027, 37045, 37856, 37843, 33953, 25937, 16806, 11781, 14249, 21976, 31229, 41105, 48870, 48968, 42530, 37380, 35987, 35389, 35810, 38093, 38299, 32009, 21044, 12969, 12800, 18247, 25592, 34480, 44101, 49709, 47259, 40330, 36196, 35854, 35894, 36024, 36916, 35947, 29903, 19972, 12463, 12733, 19672, 29067, 38803, 46753, 48689, 44094, 38710, 36411, 35565, 35281, 36543, 37685, 35070, 27246, 17407, 11852, 14126, 21957, 31450, 40828, 47776, 48355], [30740, 31894, 31719, 31440, 31652, 31797, 32047, 33593, 36292, 38130, 37987, 36519, 34218, 31188, 28494, 27878, 29599, 31570, 32163, 32064, 31873, 31296, 31096, 32459, 35127, 37744, 38875, 37770, 35037, 32124, 29858, 28463, 28628, 30364, 31828, 31946, 31884, 32081, 31668, 31284, 32591, 35518, 38226, 39062, 37778, 35218, 32080, 28812, 26865, 27743, 30309, 32056, 32601, 32800, 32416, 31384, 31276, 33646, 37438, 39479, 38337, 35650, 33137, 30836, 28489, 27271, 28727, 31477, 32420, 31789, 31981, 32745, 32684, 32703, 34363, 37107, 38760, 37866, 35052, 32002, 29580, 28024, 28113, 29934, 31803, 32543, 32657, 32452, 31892, 31714, 32775, 35223, 38037, 39041, 37146, 33902, 31098, 28983, 28002, 28975], [31337, 32852, 33606, 33433, 32715, 31530, 30559, 31406, 33879, 35880, 36707, 36784, 35456, 32543, 29800, 28873, 29608, 30850, 31934, 32851, 33443, 33411, 32951, 32747, 33288, 34332, 35216, 35497, 34879, 33207, 31195, 30083, 30164, 30853, 31729, 32420, 32604, 32534, 32445, 32203, 32322, 33486, 34989, 35787, 35922, 35362, 33702, 31590, 30264, 30068, 30727, 31741, 32260, 32063, 31928, 32152, 32329, 32707, 33925, 35477, 36057, 35437, 34431, 33075, 31064, 29671, 30196, 31496, 32063, 32275, 32540, 32337, 31831, 31902, 33011, 34784, 36096, 36231, 35604, 34520, 32684, 30457, 29140, 29737, 31534, 32508, 32037, 31594, 31915, 32231, 32538, 33757, 35631, 36637, 36079, 34767, 33352, 31661, 30041, 29450], [34538, 32542, 32056, 31767, 32199, 33257, 33271, 31590, 29018, 27058, 27232, 29618, 32909, 36136, 38704, 39206, 36877, 33783, 32193, 31597, 31381, 32307, 33695, 33608, 31461, 28468, 26825, 27872, 30608, 33473, 36360, 38781, 38564, 35478, 32834, 32397, 32480, 32399, 33029, 33694, 32906, 30398, 27455, 26342, 28093, 31322, 34553, 37622, 39533, 38345, 34893, 32408, 31737, 31656, 32186, 33504, 34253, 32854, 29438, 26527, 26534, 28929, 32068, 35552, 38678, 39419, 36982, 33678, 32166, 32197, 32370, 32808, 33668, 33622, 31588, 28391, 26220, 26790, 29851, 33661, 36936, 39053, 38756, 35799, 32868, 32101, 32308, 32419, 33207, 34183, 33350, 30422, 27341, 26078, 27383, 30647, 34394, 37660, 39721, 38924], [25879, 27889, 31116, 32547, 35296, 36812, 32250, 23791, 18679, 21112, 28134, 34844, 40692, 46326, 47658, 40439, 30506, 27879, 30922, 32096, 32495, 34767, 34722, 29244, 21749, 18536, 22578, 30585, 37810, 43162, 46774, 45384, 36966, 28898, 28888, 32287, 32919, 33511, 35171, 33338, 26755, 19924, 18543, 23904, 31875, 38954, 45034, 48550, 44894, 35082, 28827, 29837, 30860, 30058, 32467, 35724, 33361, 25889, 19452, 19604, 26429, 34692, 41010, 46183, 48036, 41568, 30801, 26834, 30269, 32811, 33366, 34876, 34793, 30020, 22613, 18285, 21019, 28406, 35834, 42653, 48549, 48450, 39470, 29583, 27700, 30452, 31530, 32494, 34547, 33743, 27984, 20792, 18450, 23307, 31574, 39414, 45838, 49028, 45204, 35197], [41011, 31440, 26531, 25562, 28727, 35525, 41907, 41782, 33158, 21974, 15549, 15724, 20887, 28693, 36823, 42937, 44154, 41048, 38562, 38588, 38901, 39040, 39822, 39235, 33818, 24304, 15979, 12072, 12349, 17774, 28979, 41248, 47127, 44781, 40273, 39056, 40307, 42571, 46148, 48274, 44084, 32258, 16597, 3457, 0, 2976, 15835, 33168, 49403, 57075, 54163, 47849, 44092, 41751, 39834, 39673, 39583, 34459, 22209, 8406, 916, 2523, 12497, 29502, 48562, 59666, 56252, 44786, 37328, 36716, 38590, 40897, 43270, 42823, 34435, 18002, 3449, 0, 4185, 13608, 29145, 48005, 60442, 61154, 54809, 47762, 41570, 36136, 32976, 32454, 30300, 21584, 9042, 1565, 3895, 14433, 30914, 50336, 64868, 65535]], "framecount": 5.0, "time": 1489540132022}
{"dataframe": [[34128, 32707, 32116, 32913, 34058, 34166, 33308, 33026, 33620, 33482, 31888, 30331, 30507, 31997, 32858, 32520, 32382, 33217, 34220, 34557, 34009, 33022, 32465, 32388, 32378, 32757, 33362, 33070, 31924, 31215, 31352, 31944, 32811, 33385, 33260, 33348, 34088, 34195, 33099, 32106, 32193, 32883, 33228, 32692, 31696, 31290, 31750, 32588, 33657, 34375, 33600, 32029, 31671, 32490, 33061, 33429, 34228, 34780, 34126, 32439, 30579, 29277, 29499, 31907, 34586, 34933, 34065, 33993, 33665, 32706, 32638, 32814, 31999, 31566, 32422, 33224, 33197, 32857, 32643, 32658, 32596, 32224, 32217, 32922, 33193, 32491, 32185, 32761, 32969, 33202, 34754, 35731, 33799, 31122, 30640, 31093, 30723, 30911, 32535, 33948], [13135, 24598, 28340, 28158, 26649, 24557, 25717, 32964, 45794, 59574, 65535, 63712, 52718, 35204, 14436, 1309, 4845, 18079, 27420, 30372, 30187, 26342, 21475, 22994, 34224, 51189, 64751, 65535, 60103, 46551, 28568, 11063, 3927, 10944, 22604, 27948, 26996, 24744, 23173, 23628, 28941, 40904, 55977, 65535, 64632, 56049, 42760, 24213, 5953, 1457, 13317, 26234, 29614, 28132, 25792, 22477, 22916, 31450, 45375, 58977, 65535, 64742, 54288, 37457, 17356, 3607, 4785, 15302, 23973, 28040, 28594, 25934, 23507, 25653, 34496, 49735, 64611, 65535, 61697, 47320, 29609, 11787, 2615, 7661, 18594, 24801, 27192, 29204, 28858, 26209, 26408, 35172, 52482, 65535, 65535, 57938, 42772, 24816, 6747, 1072], [43119, 38235, 36622, 35718, 34793, 35481, 36128, 32640, 24664, 17188, 14691, 16956, 22560, 31674, 42783, 50234, 49102, 41852, 35502, 33278, 34066, 36386, 38291, 37019, 30958, 21816, 14849, 14193, 18871, 26251, 35624, 44978, 48849, 44947, 38905, 36162, 35690, 35999, 37380, 37718, 34394, 27428, 19190, 14315, 15848, 21251, 27813, 36991, 46873, 49561, 43234, 36460, 35887, 39020, 40557, 38947, 35346, 29606, 21342, 14234, 13342, 18277, 24676, 31563, 40854, 49224, 49744, 43480, 38110, 35960, 34878, 35019, 36103, 35173, 30183, 22133, 15201, 13927, 18499, 26059, 35341, 44910, 49686, 46509, 40264, 36783, 35301, 34373, 35500, 37205, 35304, 28729, 20146, 14057, 14240, 20197, 28707, 38271, 46866, 49231], [30910, 31931, 32130, 32671, 33073, 32280, 31439, 32708, 35724, 37790, 37646, 36442, 34838, 32254, 29088, 27230, 27986, 30482, 32613, 33247, 32791, 32005, 31424, 31883, 34050, 36914, 38415, 37793, 35801, 33257, 30510, 28073, 27379, 29171, 31584, 32714, 32990, 32888, 32247, 31879, 32607, 34406, 36714, 37920, 36933, 35062, 33293, 30608, 27723, 27555, 30094, 32217, 32721, 32601, 32047, 31161, 31269, 33350, 36590, 38705, 38006, 35546, 33639, 32327, 30076, 27843, 28195, 30454, 31934, 32439, 32720, 32281, 31653, 32341, 34315, 36478, 37858, 37618, 35794, 33357, 30788, 28388, 27654, 29407, 31655, 32539, 32854, 33030, 32099, 31014, 31870, 34426, 37013, 38470, 37954, 35597, 32620, 29765, 27745, 27959], [30019, 31114, 32318, 33305, 33514, 32790, 31971, 32219, 33691, 35210, 35616, 35131, 34512, 33516, 31679, 29923, 29638, 30579, 31476, 32113, 32872, 33285, 32941, 32660, 33338, 34553, 35315, 35391, 35054, 34161, 32362, 30219, 29226, 29952, 31214, 31920, 32294, 32680, 32877, 32897, 33081, 33844, 35269, 36332, 35965, 34689, 33324, 31551, 29570, 28928, 30091, 31581, 32245, 32326, 32368, 32395, 32303, 32788, 34543, 36370, 36577, 35523, 34182, 32476, 30633, 29680, 30057, 31197, 32275, 32775, 32712, 32435, 32124, 31965, 32591, 34180, 35662, 35978, 35294, 34150, 32458, 30340, 29165, 30098, 32064, 33193, 33325, 33049, 32287, 31441, 31565, 32880, 34714, 36173, 36363, 35119, 33229, 31406, 30047, 29718], [35290, 32264, 31896, 32302, 32258, 32760, 33436, 32443, 29799, 27585, 27156, 28417, 31254, 35389, 39122, 39962, 37280, 33609, 31700, 31439, 31727, 32655, 33934, 34098, 32213, 29107, 26842, 26885, 29085, 32568, 36383, 39089, 39045, 36327, 33413, 32163, 31929, 32068, 32929, 33821, 33276, 31005, 28222, 26777, 27687, 30249, 33448, 37013, 39575, 38745, 35113, 32307, 31810, 32165, 32745, 33739, 34087, 32718, 30071, 27518, 26639, 28107, 30912, 34087, 37517, 39598, 38189, 34844, 32872, 32374, 32098, 32465, 33429, 33557, 32013, 29218, 26772, 26624, 29024, 32474, 35755, 38289, 38944, 37038, 34285, 32819, 32447, 32242, 32404, 33021, 33075, 31435, 28511, 26502, 27163, 30010, 33537, 36945, 39349, 38932], [27879, 28219, 30514, 31296, 33270, 35018, 32375, 25948, 20613, 21146, 27037, 33381, 38627, 44469, 47928, 43225, 33479, 28868, 30463, 31207, 31046, 33472, 34969, 30857, 23128, 18436, 21264, 29137, 36808, 42744, 47224, 47175, 39596, 30115, 27546, 30256, 31755, 32618, 34174, 33060, 27981, 22198, 20318, 24430, 31553, 37638, 42730, 47320, 46516, 37346, 28291, 27467, 30059, 31065, 33488, 36369, 33904, 26296, 19773, 19658, 25910, 33746, 39594, 44093, 46936, 43752, 34655, 28441, 29136, 30979, 31763, 33935, 35095, 31483, 24494, 19341, 20648, 27652, 35413, 41608, 46790, 47945, 40749, 30289, 26770, 29762, 32057, 33147, 34839, 34431, 29678, 22831, 19176, 22022, 29128, 36724, 43638, 48728, 47518, 37784], [55608, 41510, 29573, 21876, 21028, 25932, 31204, 33591, 32344, 27876, 23356, 21991, 24047, 29464, 37820, 43538, 40245, 32298, 29877, 33660, 38375, 44139, 50913, 52374, 43729, 27765, 11533, 1140, 0, 6009, 20058, 37810, 52341, 58292, 57373, 54273, 49937, 44070, 38604, 33850, 26786, 15838, 4346, 0, 1816, 13669, 29982, 48048, 65535, 65535, 64196, 43826, 28620, 21202, 17852, 20613, 28646, 33974, 31959, 25939, 21525, 21654, 25994, 32968, 41410, 47468, 44668, 34581, 27987, 29249, 33403, 38359, 44672, 48152, 43367, 30703, 16541, 7743, 6838, 12842, 24532, 39448, 50595, 51448, 45452, 41222, 40177, 39297, 39267, 40499, 38717, 30169, 17445, 7713, 5772, 11215, 22071, 36759, 50842, 56404]], "framecount": 6.0, "time": 1489540132132}
{"dataframe": [[34290, 34277, 34038, 33506, 33010, 32257, 31667, 32611, 33894, 33207, 31831, 31875, 32207, 31736, 31771, 32784, 33577, 33849, 33989, 33552, 32392, 31702, 32333, 33447, 33806, 33285, 32651, 32509, 32650, 32338, 31375, 30805, 31699, 33218, 33828, 33902, 34292, 34115, 32864, 32018, 32459, 33137, 33142, 32711, 32216, 31825, 31787, 32072, 32212, 32227, 32893, 34113, 34363, 33174, 32112, 32128, 32788, 33922, 34925, 34240, 31956, 30346, 30582, 31415, 31906, 32810, 34072, 34196, 33141, 32572, 33141, 33810, 33549, 32661, 32236, 32510, 32601, 32105, 31785, 32240, 33030, 33392, 33166, 32900, 32817, 32464, 31980, 32139, 32995, 33877, 34209, 33829, 33047, 32440, 32373, 32552, 32297, 31426, 30631, 30906], [11424, 22871, 26618, 28397, 28282, 24071, 24194, 33383, 45859, 57987, 65535, 63709, 50703, 35646, 19747, 4876, 2925, 15273, 26315, 29357, 30348, 29377, 24826, 23540, 31656, 46370, 59789, 65535, 62283, 50164, 32539, 15538, 5905, 7982, 18000, 25525, 26927, 26978, 26734, 24628, 25649, 36421, 53460, 65362, 65535, 58046, 43126, 24611, 11071, 8976, 14405, 19370, 22572, 26401, 28317, 25644, 23029, 27550, 41462, 59017, 65535, 65535, 54248, 38597, 20143, 4764, 2996, 14105, 25113, 29567, 29914, 26884, 22729, 23458, 31721, 45945, 60866, 65535, 63446, 51114, 34580, 16206, 3821, 5366, 15971, 24226, 28121, 30633, 29293, 23873, 23049, 33966, 52273, 65535, 65535, 57072, 44368, 30746, 15405, 5070], [44149, 38200, 35860, 35402, 36136, 38033, 37490, 32042, 23777, 16327, 13287, 16567, 24035, 32680, 41909, 49271, 49362, 42284, 35263, 32847, 33625, 35569, 37496, 37381, 33045, 24812, 16953, 14004, 16811, 23985, 33700, 43131, 48295, 46540, 40745, 36811, 35883, 35588, 35970, 37107, 35863, 29871, 21533, 15668, 14508, 17657, 25261, 36374, 46046, 48917, 45396, 40845, 38073, 35670, 34212, 35929, 38152, 34971, 25504, 16060, 12902, 16004, 22302, 30742, 40782, 48629, 49076, 42845, 37019, 35233, 35138, 35495, 36567, 36412, 32532, 24832, 16939, 13996, 17360, 24393, 32915, 41541, 47192, 46921, 42257, 37714, 35320, 34750, 36039, 37908, 36941, 30996, 21945, 14678, 13123, 17531, 25779, 35741, 45070, 49566], [30158, 32066, 32682, 32676, 32167, 31219, 31065, 32918, 36190, 38683, 38872, 37116, 34308, 31046, 28197, 26903, 27996, 30898, 33351, 33854, 33148, 32262, 31437, 31302, 32818, 35653, 37914, 38200, 36796, 34390, 31276, 28359, 27384, 28937, 31236, 32454, 32667, 32468, 32058, 31891, 32457, 33996, 36265, 37968, 37892, 36311, 33852, 30608, 27658, 27122, 29169, 31409, 32415, 32856, 32884, 32078, 31468, 32706, 35598, 37958, 38198, 36831, 34746, 32027, 29068, 27353, 28271, 30845, 32457, 32554, 32464, 32330, 31889, 32023, 33430, 35749, 37737, 37978, 36373, 33934, 31318, 29075, 28223, 29135, 30776, 32040, 32727, 32666, 31829, 31199, 31799, 33767, 36486, 38555, 38708, 36871, 33712, 30121, 27423, 27082], [30585, 31968, 33030, 33406, 33247, 32561, 31250, 30719, 32657, 35516, 36510, 35918, 35048, 33452, 31240, 30003, 30296, 31109, 31657, 32072, 32422, 32307, 31940, 32119, 33073, 34523, 35867, 36232, 35614, 34501, 32466, 29841, 28842, 30111, 31546, 32214, 32987, 33453, 32805, 32079, 32140, 32688, 34150, 36320, 36973, 35355, 33242, 31352, 29418, 28745, 30309, 32500, 33472, 33224, 32612, 32315, 32529, 32862, 33059, 33548, 34698, 35876, 35741, 33858, 31486, 30164, 30200, 30806, 31323, 31993, 32897, 33126, 32347, 31636, 32038, 33632, 35485, 36287, 35828, 34827, 33364, 31273, 29637, 29838, 31326, 32318, 32295, 31996, 31934, 32088, 32271, 32761, 34190, 36067, 36850, 35904, 33886, 31693, 30137, 29832], [35753, 32994, 32273, 32149, 32337, 33257, 33436, 32079, 30063, 27829, 26500, 28004, 31630, 34959, 37729, 39781, 38771, 34779, 31737, 31340, 31693, 32112, 33268, 33995, 32576, 29654, 27390, 27122, 28969, 32235, 35582, 37948, 38649, 37013, 34167, 32657, 32536, 32143, 32026, 33092, 33510, 31601, 28814, 27347, 27663, 29491, 32650, 36325, 38844, 38596, 36020, 33770, 32970, 32222, 31563, 32531, 34238, 33859, 30540, 26741, 25684, 27868, 31215, 34406, 37693, 39996, 38833, 34901, 32115, 31754, 31977, 32284, 33177, 33718, 32625, 29974, 27344, 26707, 28558, 31745, 35107, 37971, 39210, 37731, 34684, 32663, 32011, 31544, 31844, 33343, 33927, 32044, 29100, 27288, 27553, 29668, 32670, 35624, 37976, 38543], [27803, 26566, 29828, 31194, 33483, 37043, 35507, 27677, 20085, 18779, 23826, 31290, 38529, 45010, 48634, 45092, 35201, 28091, 28433, 30412, 31206, 33890, 36276, 33120, 25308, 18985, 19351, 25818, 33716, 40890, 47430, 49552, 42611, 31561, 26887, 29058, 31144, 32381, 34595, 34758, 30099, 22900, 18943, 22089, 29570, 36453, 42339, 47697, 47475, 38159, 28339, 27634, 31261, 31940, 32826, 35890, 35568, 28988, 20687, 17666, 22155, 30038, 37534, 44426, 49146, 46687, 36729, 28630, 28713, 31391, 32132, 33460, 34424, 31058, 24505, 19661, 20468, 26711, 34276, 40626, 46063, 48033, 42110, 32157, 28297, 30852, 31871, 31328, 33431, 34759, 30463, 23107, 19330, 22325, 29320, 36274, 42177, 46615, 46130, 38417], [50600, 41256, 36414, 34985, 34430, 36516, 40063, 38730, 29586, 17588, 9756, 8821, 14160, 24957, 39296, 51110, 52870, 45370, 38238, 36302, 36288, 37301, 40732, 42721, 37442, 25155, 12547, 6118, 7366, 14980, 28048, 44025, 55623, 55304, 45440, 36968, 34954, 35591, 36907, 39761, 40639, 34086, 21412, 10468, 6864, 10499, 19732, 33328, 47490, 54707, 50871, 41966, 36485, 35706, 37028, 39009, 40423, 38799, 31135, 18718, 8832, 6844, 11818, 21908, 36223, 49780, 54348, 48734, 41504, 38731, 38174, 37949, 39223, 40189, 36073, 25057, 12116, 5356, 7691, 16045, 27901, 42066, 53194, 54118, 46631, 40251, 38284, 37188, 37003, 39211, 39823, 33657, 21195, 8754, 3494, 8096, 20268, 36163, 51261, 58378]], "framecount": 7.0, "time": 1489540132225}
{"dataframe": [[32318, 33744, 34398, 34456, 34149, 33734, 33530, 33305, 32863, 32568, 32292, 31484, 30637, 30750, 31759, 32854, 33498, 33577, 33303, 33347, 34215, 34875, 33926, 32288, 31756, 32133, 32416, 32428, 32020, 31167, 30887, 32137, 34080, 34862, 34100, 33075, 32539, 32383, 32669, 33108, 33204, 33130, 32771, 32018, 31861, 32296, 32103, 31824, 32722, 34072, 34524, 33818, 32501, 31661, 31886, 32292, 32249, 32722, 34020, 34629, 33752, 32465, 31830, 31664, 31467, 31680, 32715, 33539, 33347, 32831, 32471, 32580, 33860, 35057, 34066, 32269, 32172, 32565, 31560, 30542, 30912, 31852, 33007, 34394, 34719, 33729, 33039, 32923, 32578, 32577, 33392, 34116, 33876, 32293, 29938, 29002, 30776, 33261, 34124, 34135], [8097, 18675, 24914, 26483, 27517, 26383, 23890, 27006, 39639, 56373, 65535, 65535, 57267, 43515, 24240, 6187, 2701, 13144, 22172, 24638, 26801, 28360, 26398, 25259, 30747, 43815, 58618, 65305, 61424, 53517, 42355, 23265, 4731, 2293, 12843, 21546, 25931, 29080, 28408, 25608, 26523, 33380, 47352, 63651, 65535, 61343, 46933, 30480, 12931, 2661, 7033, 19133, 26891, 28342, 27733, 26448, 25117, 27464, 37810, 53862, 65344, 65534, 57067, 42974, 24374, 8245, 4442, 12730, 22723, 27703, 28480, 26175, 22791, 23730, 31724, 44453, 57978, 65535, 65361, 53857, 36779, 18215, 4302, 3706, 14812, 24446, 27465, 29295, 30149, 27311, 25269, 30907, 45375, 61597, 65535, 61765, 47181, 31015, 15168, 4813], [46406, 39604, 35619, 35158, 35818, 37266, 38514, 36031, 28048, 18146, 12509, 13839, 20013, 28694, 39121, 47767, 48936, 43883, 40106, 38631, 35145, 32122, 34154, 36988, 33962, 25901, 18245, 14989, 17172, 23291, 31358, 40316, 47089, 47109, 41775, 37379, 35840, 35635, 36719, 37794, 36307, 31506, 23568, 15218, 12349, 17133, 25835, 35278, 44095, 48523, 45808, 40073, 36830, 35986, 35815, 36651, 37748, 36109, 29345, 19415, 12726, 13387, 19438, 28077, 38444, 47305, 49124, 43957, 38774, 37344, 36727, 35512, 35536, 35787, 32942, 26211, 18172, 13275, 15082, 22783, 32519, 41910, 48601, 48376, 42027, 36541, 34798, 34472, 35258, 37044, 36841, 32299, 24021, 16106, 14149, 18952, 26106, 33424, 41712, 47526], [29206, 31765, 32819, 32722, 32517, 32096, 31556, 32154, 34528, 37334, 38662, 37899, 35591, 32464, 29334, 27490, 28023, 30029, 31379, 31995, 33041, 33585, 32567, 31734, 32876, 35232, 37153, 37755, 36718, 34302, 31560, 29425, 28385, 29063, 30972, 32249, 32300, 31952, 31625, 31690, 32505, 33917, 35914, 37960, 38395, 36539, 33629, 30771, 28387, 27639, 29222, 31431, 32420, 32537, 32466, 31991, 31414, 31876, 34138, 37346, 39191, 38296, 35602, 32458, 29367, 27390, 27997, 30408, 31935, 31891, 32089, 32992, 33024, 32136, 32393, 34645, 37310, 38385, 37245, 34721, 31815, 29034, 27543, 28543, 30772, 32138, 32789, 33100, 32310, 31216, 31665, 33716, 36233, 37981, 37797, 35896, 33644, 31356, 28856, 27810], [30688, 31855, 32583, 32850, 32759, 32192, 31488, 31515, 32719, 34409, 35588, 36041, 35629, 34045, 31961, 30485, 29997, 30613, 31989, 32799, 32374, 31743, 31740, 31914, 32248, 33579, 35628, 36998, 36927, 35379, 32685, 29958, 28714, 29480, 31064, 32064, 32548, 32867, 32652, 32179, 32411, 33473, 34773, 35827, 36113, 35308, 33932, 32479, 30766, 29644, 30390, 31323, 30484, 30241, 32356, 33835, 33158, 32822, 33902, 35184, 36060, 36090, 34845, 33090, 31459, 29866, 29254, 30462, 32082, 32735, 33076, 33497, 33121, 32016, 31618, 32676, 34333, 35396, 35573, 35027, 33576, 31423, 29958, 30293, 31631, 32612, 32986, 32791, 31942, 31165, 31429, 32734, 34303, 35422, 36053, 36181, 35039, 32568, 30218, 29183], [36500, 33756, 32591, 32384, 32184, 32690, 33664, 33427, 31206, 28101, 26397, 27499, 30400, 33621, 37034, 39552, 38701, 35228, 32937, 32519, 31958, 31638, 32723, 33757, 32911, 30376, 27809, 27070, 28541, 31003, 33862, 37284, 39713, 38734, 35214, 32599, 31946, 31894, 32101, 32864, 33395, 32375, 29528, 26810, 26673, 29069, 32475, 36153, 39052, 39229, 36560, 33609, 32300, 32074, 32074, 32515, 33410, 33572, 31656, 28412, 26528, 27396, 30062, 33334, 36672, 39082, 38918, 36087, 33167, 32088, 31961, 32035, 32822, 33589, 32795, 30472, 27960, 26749, 27938, 31168, 34715, 37585, 39351, 38542, 35108, 32169, 31541, 31695, 31889, 32940, 34051, 33234, 30209, 27087, 26440, 28756, 32198, 35260, 37931, 39296], [29726, 28119, 31071, 32455, 33340, 35105, 34376, 28939, 21476, 18343, 22862, 30817, 37443, 43077, 47719, 46371, 37045, 28705, 28897, 31872, 31990, 32599, 34218, 32381, 26578, 20870, 20080, 25685, 33484, 39233, 43844, 47335, 44062, 33803, 27481, 29851, 32692, 32632, 34045, 35220, 31210, 23903, 19191, 20283, 26231, 34010, 41458, 47777, 49589, 42247, 30793, 26616, 29272, 30763, 31818, 34792, 35015, 29746, 22666, 19365, 22803, 30308, 37244, 43060, 47991, 46916, 36969, 27342, 27005, 30957, 32506, 33728, 35459, 33766, 27540, 20736, 19140, 24477, 32336, 38866, 44486, 48173, 44851, 34697, 27620, 28751, 31376, 31865, 33545, 35059, 32027, 25333, 19949, 20389, 26784, 34730, 40955, 45702, 47538, 42260], [52674, 40690, 33624, 32617, 32817, 34730, 39480, 41428, 34824, 22410, 11973, 8456, 12597, 22800, 36123, 48066, 52026, 45654, 37198, 35066, 36985, 38815, 41647, 44001, 39798, 27747, 14567, 7048, 6822, 13508, 26422, 41852, 52442, 52179, 43905, 37359, 36263, 35996, 35410, 38622, 44065, 42456, 29848, 14866, 6796, 6295, 11986, 23888, 38643, 49174, 50618, 46333, 43724, 43435, 42088, 41650, 43832, 42455, 31716, 15666, 2455, 0, 0, 14602, 37835, 56435, 63298, 57945, 47660, 44182, 46058, 41250, 31723, 27840, 25618, 17240, 8950, 8340, 12693, 19985, 32317, 46941, 56678, 56407, 47505, 37978, 33499, 32245, 32601, 35805, 39229, 36613, 26164, 14154, 8006, 8725, 15047, 28320, 45569, 56333]], "framecount": 8.0, "time": 1489540132335}
{"dataframe": [[34703, 34747, 33339, 32238, 32574, 32698, 31898, 31975, 33110, 33124, 32069, 32073, 32984, 33067, 32141, 31398, 32040, 33764, 34491, 33568, 32827, 32856, 32541, 32325, 33170, 33906, 33445, 32664, 32137, 31550, 31196, 31378, 31955, 33051, 34332, 34708, 33629, 31927, 31361, 32561, 33947, 34163, 33728, 33317, 32801, 32015, 31152, 30788, 31324, 32287, 33009, 33477, 33881, 34040, 33569, 32589, 32234, 33329, 34612, 34366, 33018, 31701, 30379, 29454, 30184, 32475, 34613, 35186, 34204, 32827, 32338, 32796, 33290, 33712, 34164, 33578, 31862, 30927, 31340, 31643, 31596, 32198, 33260, 33845, 33688, 33287, 33478, 33917, 33079, 31612, 31837, 33228, 33694, 33440, 33029, 31882, 30851, 31382, 32614, 33276], [7537, 19405, 27561, 28118, 26192, 24806, 24567, 26955, 35572, 51781, 65535, 65535, 57887, 43433, 27401, 11777, 4289, 9128, 18899, 25614, 28859, 28707, 25833, 25260, 30208, 40848, 55401, 65535, 64454, 53809, 39150, 21821, 7498, 5825, 14869, 22556, 25781, 29175, 30450, 26406, 23140, 28624, 43557, 59964, 65535, 63263, 52168, 36115, 16927, 4083, 6481, 17954, 25168, 26174, 26689, 26809, 24872, 25228, 33912, 50354, 65517, 65535, 62138, 47548, 28303, 7793, 0, 7765, 22197, 28164, 30023, 31212, 26871, 21452, 25527, 39480, 55517, 65535, 65535, 56309, 41369, 23258, 6466, 2378, 13955, 26359, 28434, 26579, 26876, 25693, 23557, 28883, 44062, 59697, 65535, 63923, 54152, 37023, 16698, 4091], [45583, 39360, 36569, 36684, 36256, 37283, 39569, 37321, 28520, 18321, 12828, 13966, 19744, 27687, 37021, 46001, 49448, 45277, 39448, 36712, 35247, 34578, 36110, 37165, 34178, 27099, 18794, 13989, 15749, 22304, 30399, 39060, 46464, 47907, 42879, 37845, 36573, 36541, 36283, 36408, 35794, 32477, 25503, 16931, 12352, 15312, 23613, 33742, 43651, 49477, 47420, 40731, 36241, 35153, 35440, 37117, 38530, 35801, 28709, 20722, 15020, 13982, 18506, 26676, 36385, 45894, 50150, 45874, 39104, 36137, 34901, 34084, 36044, 37873, 34564, 27252, 19838, 15064, 15389, 21008, 29341, 38708, 47041, 49164, 43584, 37100, 35004, 34991, 35109, 36736, 38167, 34602, 25467, 16626, 13664, 16522, 22836, 31774, 41746, 48101], [29582, 31833, 32157, 32111, 32778, 32139, 30456, 31127, 34666, 37916, 38835, 37799, 35611, 32921, 30181, 27881, 27596, 29871, 31991, 32210, 32325, 32932, 32462, 31511, 32228, 34715, 37267, 38356, 37412, 34991, 32241, 29737, 27947, 28211, 30534, 32361, 32336, 31832, 31753, 31823, 32201, 33350, 35485, 37991, 39058, 37490, 34294, 31020, 28278, 27026, 28304, 30907, 32644, 33136, 32765, 31647, 31005, 32259, 34839, 37132, 38229, 37772, 35806, 33106, 30395, 28131, 27535, 29216, 31348, 32310, 32737, 32932, 32363, 32010, 33095, 34965, 36572, 37516, 37179, 35239, 32499, 29844, 27941, 27989, 30059, 32069, 32716, 32723, 32568, 32081, 31795, 32804, 35331, 37794, 38222, 36564, 34211, 31763, 29193, 27761], [29490, 30644, 32000, 33136, 33912, 33790, 32587, 31747, 32522, 33905, 34654, 35115, 35333, 34465, 32613, 30861, 30195, 30938, 32135, 32496, 32270, 32234, 31919, 31181, 31424, 33253, 35317, 36427, 36478, 35406, 33343, 31219, 30031, 30081, 30877, 31448, 31376, 31567, 32892, 34028, 33327, 32498, 33802, 35559, 35592, 34828, 33953, 32256, 30520, 30055, 30648, 31796, 33025, 33317, 32568, 31817, 31422, 31359, 32364, 34434, 35949, 36086, 35646, 34742, 32763, 30584, 29791, 30344, 31128, 31658, 32138, 32647, 32826, 32474, 32205, 32948, 34674, 36118, 36223, 35226, 33702, 31762, 30006, 29540, 30275, 31078, 31663, 32398, 33020, 33072, 32833, 33030, 33934, 35090, 35797, 35564, 34435, 32862, 31127, 29751], [37551, 33993, 32059, 32105, 32434, 32915, 33550, 33272, 31432, 28480, 26330, 27082, 30166, 33414, 36375, 38928, 39067, 36329, 33655, 32575, 31860, 31523, 32316, 33227, 32868, 30851, 28134, 26996, 28485, 31226, 34149, 37286, 39254, 37993, 34681, 32632, 32273, 31966, 31955, 32874, 33573, 32857, 30658, 27976, 26746, 28123, 31289, 34929, 38209, 39597, 37684, 34194, 32309, 32125, 32041, 32296, 33228, 33439, 31865, 29202, 27090, 26945, 29101, 32744, 36637, 39413, 39419, 36404, 33043, 31700, 31593, 31772, 32794, 34064, 33684, 31177, 28170, 26720, 27613, 30247, 33677, 37136, 39392, 38754, 35444, 32459, 31666, 31866, 32270, 33431, 34388, 33185, 29966, 27079, 26484, 28220, 31245, 34734, 37965, 39439], [32164, 26908, 28916, 31454, 32505, 34538, 35344, 31128, 23524, 18982, 21729, 29048, 36272, 42382, 46991, 46121, 37629, 29125, 28863, 32420, 32947, 33011, 34486, 33121, 27223, 20703, 19151, 24267, 31999, 38615, 44244, 47938, 44991, 35130, 27791, 28816, 31903, 32605, 33804, 34736, 31830, 25941, 20718, 19953, 25071, 32888, 39913, 45926, 48977, 43872, 32830, 26919, 29078, 31587, 32277, 34181, 34838, 30550, 23544, 19581, 21980, 28542, 35311, 41417, 46902, 47819, 40179, 30027, 27528, 30686, 31784, 32308, 34812, 34415, 28210, 20946, 19142, 24146, 31712, 38053, 43250, 47242, 45789, 36874, 28583, 28369, 31196, 31547, 32546, 34932, 33670, 27128, 20276, 19433, 25094, 32470, 39152, 45670, 49086, 44069], [54611, 46435, 39925, 36362, 34733, 35519, 37747, 38156, 32854, 21288, 10155, 6956, 11515, 20589, 33947, 48978, 56786, 52488, 43487, 38033, 34903, 32516, 33786, 37071, 35843, 28103, 18601, 12916, 13193, 18992, 28920, 40649, 49467, 48899, 39135, 30538, 30347, 35324, 41721, 48448, 51101, 44808, 30513, 14120, 2452, 0, 6476, 19327, 35848, 50769, 56484, 53302, 49203, 46233, 41623, 37899, 37244, 35068, 27410, 16178, 6546, 3808, 9851, 21877, 36543, 51092, 59063, 54978, 44324, 36802, 33514, 31804, 32979, 36882, 38152, 32058, 20580, 11179, 9198, 14182, 24065, 37375, 49670, 53663, 47807, 39849, 36290, 35710, 36112, 38374, 40724, 38032, 27925, 15155, 7547, 7948, 14485, 26198, 41578, 53643]], "framecount": 9.0, "time": 1489540132429}
{"dataframe": [[33638, 33431, 32301, 31909, 33045, 33871, 33611, 33462, 33835, 33885, 32774, 31075, 30666, 31556, 31735, 31517, 32750, 34346, 34293, 33413, 33070, 33003, 33052, 33286, 33205, 32972, 32985, 32519, 31487, 31176, 31779, 32245, 32427, 32853, 33493, 34166, 34481, 33610, 32032, 31597, 32523, 33258, 33227, 32959, 32811, 32934, 32929, 32104, 31173, 31499, 32537, 32913, 32815, 32967, 33253, 33499, 33793, 34120, 34414, 34124, 32733, 31188, 30662, 30747, 30801, 31340, 32882, 34430, 34418, 33316, 33024, 33596, 33738, 33395, 33104, 32869, 32722, 32508, 31742, 30801, 30778, 31766, 32815, 33558, 34280, 34592, 33932, 33032, 32575, 31886, 31345, 32475, 34145, 33831, 32394, 32176, 32393, 31664, 31545, 33044], [6040, 16462, 24809, 28442, 29212, 26565, 22746, 24651, 34972, 49240, 61070, 65535, 60811, 48947, 32797, 14885, 3365, 7200, 20291, 28031, 28062, 26192, 23555, 21883, 26619, 39039, 54463, 65535, 65535, 59004, 43023, 24031, 7992, 4214, 12832, 21073, 23544, 26906, 30396, 27665, 23769, 28912, 43584, 59172, 65535, 63096, 52159, 36882, 18913, 5495, 5994, 16904, 25344, 27907, 28905, 27943, 24553, 23679, 30259, 45032, 61547, 65535, 62840, 49823, 33470, 15360, 3895, 7149, 18449, 25355, 27170, 28230, 26704, 22991, 24505, 35829, 53011, 65535, 65535, 60341, 45828, 27177, 8575, 861, 8328, 20021, 25824, 28056, 30000, 29444, 26430, 26672, 36809, 55322, 65535, 65535, 55692, 38601, 19783, 3983], [47163, 41845, 37976, 36218, 34789, 35035, 36759, 35925, 30749, 23439, 17390, 15506, 18318, 24440, 33319, 43359, 48875, 45968, 39433, 36327, 36679, 37012, 36794, 36556, 34557, 28544, 20131, 14582, 14893, 19863, 27938, 38037, 46615, 48668, 44195, 39032, 36325, 34630, 34489, 36677, 37665, 34145, 26627, 18169, 13504, 15622, 22687, 31547, 40704, 47320, 47482, 42383, 37581, 35366, 34711, 35675, 37679, 37752, 33058, 23787, 14932, 12487, 16811, 24606, 34620, 44965, 49649, 45664, 39056, 36223, 35817, 35456, 36373, 37906, 36528, 30232, 20812, 13832, 13785, 19131, 26589, 36159, 46322, 50568, 45794, 38356, 35082, 35046, 35396, 36582, 37888, 35500, 27846, 18685, 13158, 13554, 19812, 30293, 41417, 48660], [28861, 31022, 31865, 31966, 32583, 32783, 32198, 32287, 33759, 35936, 37534, 37420, 35918, 33962, 31311, 28400, 27695, 29805, 31856, 32165, 31967, 32028, 32001, 32055, 32763, 34614, 37070, 38188, 37105, 35055, 32809, 30156, 28008, 28002, 29946, 31970, 32981, 33021, 32235, 31322, 31435, 32966, 35384, 37547, 38271, 37191, 34692, 31594, 29042, 27991, 28742, 30587, 32126, 32695, 32680, 32294, 31593, 31464, 33101, 36185, 38576, 38617, 36669, 33806, 30536, 27712, 27173, 29396, 31930, 32754, 32657, 32550, 32173, 31747, 32092, 33794, 36492, 38336, 37768, 35542, 33095, 30564, 28240, 27715, 29577, 31927, 32918, 32817, 32350, 31570, 31197, 32516, 35194, 37271, 37937, 37667, 35802, 32001, 28544, 27519], [29753, 31049, 32211, 32598, 32689, 32648, 32256, 31838, 32455, 34439, 36194, 36150, 34988, 33925, 32566, 30642, 29618, 30299, 31435, 32101, 32619, 32957, 32626, 32020, 32280, 33649, 35027, 35553, 35422, 34835, 33599, 31853, 30155, 29332, 30132, 32080, 33495, 33340, 32261, 31519, 31600, 32385, 33704, 35089, 35995, 36169, 35312, 33419, 31259, 29742, 29414, 30282, 31552, 32412, 32830, 32885, 32534, 32359, 33153, 34673, 35810, 35955, 35268, 33918, 32001, 29995, 28941, 29662, 31435, 32709, 33120, 33250, 33301, 33124, 32770, 32775, 33788, 35269, 35650, 34555, 33130, 31996, 30918, 30188, 30485, 31559, 32420, 32738, 32817, 32584, 32166, 32483, 33655, 34561, 34922, 35242, 35016, 33680, 31893, 30484], [37894, 34704, 32660, 32167, 31976, 32211, 33137, 33439, 32031, 29542, 27514, 27164, 28814, 31955, 35606, 38594, 39408, 37216, 33816, 31945, 31851, 32378, 33157, 33736, 33186, 31132, 28299, 26419, 26970, 29768, 33551, 37213, 39463, 38830, 35927, 33566, 32725, 31921, 31260, 32116, 33514, 33159, 30651, 27794, 26765, 28146, 30987, 34448, 37944, 39872, 38449, 34795, 32242, 31660, 31551, 31840, 33028, 33884, 32896, 30108, 27270, 26648, 28775, 32213, 35733, 38609, 39245, 36770, 33448, 31976, 31928, 32029, 32721, 33927, 33956, 31878, 28803, 26842, 27239, 29439, 32415, 35986, 39232, 39496, 36248, 33076, 32264, 32188, 32007, 32693, 33718, 33454, 31276, 28043, 25960, 26901, 30345, 34391, 37910, 39751], [33245, 27457, 29703, 32038, 31864, 33282, 34604, 30882, 23609, 19448, 22323, 29294, 35304, 39911, 44918, 47061, 41134, 31546, 28193, 30554, 32076, 33466, 35946, 34812, 28287, 20763, 17617, 21327, 29469, 37463, 43889, 48886, 48161, 38484, 28473, 27761, 31139, 31361, 32008, 34693, 33720, 27278, 20417, 19137, 24622, 32444, 39004, 44821, 48746, 45422, 34955, 27463, 28266, 30829, 31593, 33700, 35633, 32791, 25651, 19365, 19188, 25506, 33807, 41039, 47232, 49515, 42962, 31637, 26689, 29308, 31607, 32238, 33969, 34333, 30143, 23274, 19257, 21993, 29273, 36393, 42318, 47356, 47434, 39199, 29732, 27895, 30367, 31179, 32427, 34832, 34026, 28539, 21822, 19371, 23594, 30998, 37849, 43943, 48128, 45662], [54618, 46577, 39049, 35808, 34404, 34988, 38365, 40555, 36287, 25250, 13417, 7587, 9588, 17756, 30546, 45014, 54050, 51922, 43276, 37372, 35538, 34934, 36602, 40288, 40615, 33462, 21177, 10655, 7404, 11882, 21599, 34549, 47566, 53612, 48873, 40536, 36828, 36055, 35353, 37461, 41469, 40097, 30217, 17540, 9388, 8227, 13353, 23958, 38059, 50116, 53168, 47050, 39996, 37329, 36937, 37541, 39956, 41247, 36468, 25129, 12739, 5982, 7454, 15841, 29002, 44049, 54781, 54718, 46237, 38812, 35967, 34696, 34961, 37762, 38854, 33045, 21611, 11466, 8081, 11884, 21061, 34151, 47711, 54307, 49772, 40860, 36433, 36103, 36458, 38416, 41474, 40397, 31570, 18192, 7637, 4939, 10354, 22003, 37517, 51633]], "framecount": 10.0, "time": 1489540132522}
{"dataframe": [[34265, 33884, 32728, 31875, 31784, 32328, 32973, 33572, 34257, 34339, 33109, 31668, 31533, 32263, 32567, 32243, 32044, 32534, 33067, 32757, 32344, 32781, 33445, 33803, 34198, 34387, 33836, 32717, 31564, 30998, 31104, 31013, 30911, 32382, 34699, 34976, 33325, 32533, 33000, 33310, 33540, 33818, 33251, 32308, 32124, 32050, 31505, 31468, 32110, 32455, 32547, 33043, 33678, 33911, 33737, 33294, 32992, 33220, 33282, 32545, 31972, 32231, 32385, 31936, 31566, 31617, 32047, 33052, 34284, 34791, 34230, 33041, 32005, 31951, 32767, 33302, 32967, 32328, 32099, 32483, 32983, 32789, 32065, 31858, 32341, 32935, 33456, 33506, 32852, 32585, 33288, 33915, 33928, 33658, 33070, 32180, 31112, 30103, 30395, 32252], [1980, 13753, 24527, 27792, 29871, 31058, 27253, 23484, 28740, 44147, 60871, 65535, 62615, 50101, 33976, 15967, 3547, 5718, 18428, 27823, 29608, 29194, 27319, 23059, 22695, 32542, 49459, 63798, 65535, 61623, 46575, 28175, 12946, 6484, 10187, 18671, 24665, 27163, 28035, 26167, 22977, 25770, 39023, 56465, 65535, 65535, 57576, 43968, 24573, 6329, 1936, 12464, 23861, 27065, 26131, 25390, 25085, 26360, 32065, 44661, 59919, 65535, 62198, 51202, 36843, 18734, 4747, 5293, 16200, 24466, 27388, 29161, 28729, 25140, 24090, 31931, 47634, 62250, 65535, 62473, 48884, 30316, 12799, 4226, 8977, 19918, 25529, 26203, 27868, 28069, 24969, 26046, 36855, 52262, 62954, 64825, 59507, 47516, 27812, 8008], [48579, 42672, 37448, 36076, 35713, 35148, 35963, 36667, 33207, 24876, 16664, 14122, 17312, 23302, 31758, 42491, 49951, 48005, 40016, 35105, 35209, 36132, 36892, 37900, 36383, 30238, 21833, 15897, 14977, 18025, 24245, 34461, 45640, 50015, 45214, 38750, 36569, 36228, 35729, 36869, 38204, 35442, 27703, 18673, 13544, 14634, 20088, 28133, 38697, 48313, 50032, 43431, 36805, 35066, 35650, 36684, 37979, 37283, 32682, 24885, 16999, 13615, 16554, 23088, 31114, 40921, 49126, 49127, 41790, 35814, 34849, 35398, 36017, 37397, 37077, 31964, 23465, 16336, 13798, 16412, 23769, 34238, 44423, 49531, 46710, 40164, 36500, 35845, 35773, 36756, 37551, 34689, 27852, 20039, 14920, 15019, 19993, 27797, 37221, 46046], [28636, 30966, 33134, 33340, 32067, 31444, 31480, 31321, 32355, 35432, 38100, 38294, 36923, 34999, 32279, 29178, 27417, 28426, 31141, 32693, 32267, 31550, 31368, 31490, 32437, 34606, 36977, 38002, 37327, 35965, 34259, 31262, 27799, 27101, 29674, 31836, 31945, 32206, 32936, 32243, 31126, 32126, 34939, 37491, 38488, 37568, 35315, 32646, 29729, 27376, 27668, 30394, 32467, 32775, 32668, 32223, 31282, 31352, 33120, 35594, 37765, 38550, 37212, 34634, 31885, 28950, 26898, 27887, 31088, 33033, 32880, 32481, 32256, 31683, 31680, 33334, 35971, 37862, 38037, 36685, 34291, 31264, 28401, 27349, 28962, 31317, 32350, 32584, 32538, 31761, 31286, 32500, 34896, 37192, 38368, 37703, 35406, 32563, 29962, 27996], [30047, 30894, 32034, 32250, 32160, 32587, 32580, 31760, 31827, 33598, 35660, 36713, 36450, 34925, 32850, 31064, 29883, 29773, 30711, 31535, 31791, 32112, 32444, 32433, 32618, 33530, 34799, 35673, 35679, 34905, 33780, 32345, 30672, 29845, 30553, 31636, 32175, 32765, 33244, 32589, 31536, 31791, 33296, 34796, 35706, 35908, 35100, 33456, 31753, 30417, 29733, 30226, 31516, 32525, 33078, 33226, 32596, 31827, 32113, 33469, 35115, 36214, 36107, 34832, 32875, 30755, 29386, 29638, 31067, 32318, 32823, 32898, 32730, 32349, 32055, 32533, 34132, 35739, 35905, 34992, 34101, 32875, 30914, 29679, 30214, 31400, 32349, 33022, 32782, 31740, 31249, 31741, 32944, 34844, 36544, 36771, 35633, 33816, 31658, 29932], [38365, 34968, 32942, 32615, 32143, 31970, 32900, 33497, 32351, 29700, 27105, 26634, 28735, 31877, 35183, 38558, 40099, 37858, 33914, 31789, 31497, 31568, 32314, 33721, 34073, 32259, 29241, 27149, 27253, 29186, 32209, 35726, 38535, 39000, 36711, 33682, 32243, 32165, 32188, 32604, 33681, 33751, 31372, 28075, 26674, 27673, 29848, 32934, 36892, 39780, 39099, 35504, 32559, 31985, 32346, 32554, 32968, 33452, 32720, 30095, 27352, 26887, 28678, 31352, 34454, 37698, 39447, 38057, 34739, 32486, 32034, 31987, 32050, 32855, 33629, 32646, 29883, 27433, 26950, 28526, 31721, 35651, 38749, 39376, 37058, 33811, 32319, 32361, 32288, 32356, 33035, 33006, 31258, 28817, 27471, 28027, 30085, 32875, 36021, 38714], [35761, 27746, 28721, 32551, 32999, 33115, 34245, 32102, 25408, 19154, 19344, 26001, 33943, 40563, 46737, 49786, 44115, 32539, 26131, 27729, 30235, 31592, 34263, 35675, 31982, 24654, 19678, 21821, 28859, 35333, 40591, 45989, 47162, 39544, 29876, 28058, 31368, 32598, 33008, 34576, 33990, 28957, 21820, 18596, 22900, 30638, 36932, 42881, 48772, 47937, 37225, 27174, 27249, 31344, 32495, 33606, 35236, 32801, 25915, 19495, 19195, 25836, 34073, 40049, 45062, 48194, 43960, 33394, 27025, 28821, 31587, 32394, 34205, 35140, 31326, 24202, 19274, 20921, 27759, 34935, 40979, 46716, 48500, 41476, 30835, 27092, 29573, 31034, 32097, 34852, 35067, 29830, 22363, 18883, 22909, 31010, 37712, 42645, 46888, 45979], [56464, 50495, 42066, 37554, 35736, 35831, 38383, 40013, 36034, 25716, 13579, 6465, 7736, 15753, 28222, 43134, 54319, 54491, 46150, 39001, 36059, 34600, 35433, 39141, 40649, 34804, 22849, 11570, 7023, 10117, 19006, 32238, 46476, 54423, 51584, 43469, 38058, 35847, 34940, 36526, 39735, 39560, 32091, 19432, 9114, 6908, 12162, 22168, 35934, 49854, 55578, 49851, 40819, 36440, 35531, 35651, 37856, 40669, 38562, 28633, 15664, 7798, 8139, 14658, 25902, 40685, 52910, 54365, 46211, 38683, 36271, 35484, 35666, 38244, 39857, 35437, 24756, 13457, 8117, 10467, 18305, 30417, 45027, 54508, 51737, 42069, 36420, 35755, 35680, 37043, 40516, 40947, 33629, 20841, 10139, 7157, 11519, 20515, 33421, 47783]], "framecount": 11.0, "time": 1489540132632}
{"dataframe": [[33471, 33400, 33926, 34648, 33747, 32591, 33020, 33698, 33423, 33055, 32671, 31600, 30638, 30844, 31762, 32579, 33272, 33940, 34195, 33756, 33094, 32813, 32811, 32639, 32401, 32624, 33138, 33274, 33077, 32718, 31915, 31155, 31312, 31982, 32504, 33421, 34893, 35374, 33777, 31700, 31455, 32573, 32965, 32521, 32434, 32861, 33238, 32823, 31382, 30642, 32263, 34525, 34797, 33596, 32857, 32730, 32536, 32443, 32551, 32456, 32315, 32498, 32760, 32935, 33125, 33017, 32544, 32404, 32707, 32776, 32576, 32480, 32446, 32688, 33497, 34228, 34163, 33581, 32785, 31688, 30872, 31062, 31782, 32343, 32908, 33500, 33726, 33637, 33633, 33703, 33313, 32560, 32466, 32893, 32520, 31646, 31611, 32018, 31932, 32324], [2632, 12669, 22753, 24942, 25323, 26745, 25944, 24548, 28932, 41774, 57706, 65535, 65535, 56709, 38637, 17980, 3852, 4101, 14920, 24040, 27053, 28115, 27682, 24709, 24198, 32183, 47739, 62431, 65535, 62469, 50242, 33161, 14448, 3324, 7054, 18365, 24221, 24634, 26679, 28490, 26481, 27589, 39172, 55389, 64676, 63189, 53715, 40536, 27815, 16224, 7505, 8966, 19371, 25933, 25397, 25369, 26609, 26578, 30812, 43554, 57810, 64810, 62999, 53758, 38336, 20537, 7499, 6048, 14881, 23893, 27185, 27842, 27538, 25026, 23857, 30412, 45229, 60551, 65535, 63586, 52062, 35333, 16453, 3861, 5735, 17340, 26041, 28234, 27421, 24520, 22175, 25871, 37008, 52069, 64095, 65535, 60551, 47753, 29605, 11279], [49168, 44688, 38481, 36079, 35983, 35672, 35984, 36806, 34810, 27579, 18184, 12981, 14682, 21137, 30210, 40783, 48768, 48821, 42552, 37373, 35937, 35609, 35808, 36976, 36671, 32029, 23605, 15915, 13627, 17170, 24185, 33388, 43379, 49456, 47406, 40523, 35942, 35440, 36794, 38411, 37570, 32319, 25540, 20595, 17499, 16522, 19649, 27397, 37530, 46027, 48382, 43781, 37809, 35632, 35842, 35960, 36714, 37440, 34645, 27130, 18782, 14814, 16427, 21266, 28255, 37969, 47181, 49115, 43440, 37898, 36327, 35954, 35901, 36967, 36860, 32616, 24483, 16499, 13485, 16416, 23044, 32140, 42594, 49621, 48428, 41724, 36495, 34904, 35149, 36224, 37025, 35683, 30679, 22497, 15495, 13946, 17646, 25311, 36053, 45846], [27753, 29834, 32246, 32830, 32391, 32290, 31990, 31450, 32404, 35304, 37909, 38397, 37165, 34915, 31875, 28956, 27618, 28530, 30708, 32295, 32623, 32459, 32199, 31749, 31868, 33480, 35920, 37607, 37880, 36790, 34427, 31378, 28608, 27319, 28598, 31394, 33040, 32830, 31899, 31033, 31278, 33333, 35685, 36632, 36760, 37049, 36547, 33871, 29823, 27120, 27657, 30417, 32601, 32970, 32543, 32089, 31474, 31180, 32286, 34946, 37588, 38355, 37223, 35318, 32902, 29837, 27483, 27884, 30381, 32043, 32224, 32403, 32470, 31865, 31802, 33323, 35799, 37817, 38177, 36785, 34485, 31689, 28674, 27131, 28516, 31135, 32377, 32472, 32705, 32670, 31918, 31735, 33447, 36190, 37896, 37965, 36761, 34036, 30417, 27952], [29496, 30207, 31380, 32471, 32961, 32685, 32106, 31771, 32267, 34012, 35921, 36276, 35333, 34410, 33359, 31579, 29944, 29751, 30817, 31844, 32231, 32427, 32517, 32205, 32211, 33223, 34358, 34923, 35377, 35447, 34378, 32739, 31428, 30554, 30449, 31308, 32219, 32508, 32401, 31955, 31358, 31459, 32698, 34517, 36055, 36779, 36453, 34872, 32128, 29454, 28690, 29974, 31506, 32237, 32631, 32845, 32582, 32161, 32155, 32978, 34717, 36504, 37087, 36100, 33919, 31110, 28831, 28542, 30138, 31712, 32251, 32582, 33056, 32931, 32368, 32623, 34148, 35912, 36614, 35985, 34562, 32554, 30184, 28897, 29826, 31364, 31497, 31424, 32885, 34146, 33135, 31716, 32517, 34542, 35595, 35805, 35617, 34232, 32007, 30406], [38795, 35768, 32974, 32605, 32745, 32364, 32804, 33586, 32747, 30295, 27872, 26787, 27693, 30564, 34463, 38030, 39731, 38297, 34869, 32530, 32065, 31929, 31938, 32800, 33738, 32973, 29908, 26814, 26649, 29144, 32161, 35259, 38388, 39482, 37078, 33612, 32293, 32563, 32498, 32517, 33143, 32984, 31117, 28542, 26993, 27672, 30430, 33776, 36455, 38251, 38410, 36144, 33300, 32181, 32095, 32029, 32772, 33880, 33251, 30596, 27926, 27000, 28174, 30731, 33697, 36815, 39247, 38648, 35191, 32687, 32430, 32259, 32073, 33032, 33752, 32464, 29735, 27347, 26798, 28522, 31646, 35093, 38185, 39557, 37841, 34310, 31827, 31389, 32274, 33527, 34003, 33176, 31372, 28944, 26936, 26899, 29007, 32405, 36359, 39365], [36725, 27659, 27814, 32075, 33272, 33878, 35253, 33323, 27069, 20500, 19014, 24239, 31990, 38724, 44936, 48918, 45054, 34124, 26794, 28234, 31445, 32481, 34540, 36126, 32443, 24756, 19172, 19972, 26133, 33653, 40359, 46215, 48812, 43510, 32870, 27141, 28847, 31014, 31857, 34021, 34767, 30256, 22987, 19384, 22513, 29412, 36250, 42479, 47634, 47381, 38931, 29443, 27568, 29979, 30557, 31737, 35007, 35382, 29807, 21857, 18898, 23927, 31704, 37547, 42828, 47403, 45511, 35904, 28122, 28638, 31600, 32474, 34045, 35570, 32786, 25772, 19289, 19010, 25656, 33855, 40130, 45599, 48492, 43380, 32510, 26683, 28825, 31523, 32766, 35664, 36994, 31719, 22576, 17545, 20585, 27884, 34650, 41083, 47423, 48520], [55133, 50451, 41550, 37418, 36581, 36191, 38062, 40756, 38710, 29572, 16415, 5874, 4393, 12590, 25984, 41243, 54258, 57144, 48940, 39843, 35922, 34129, 33832, 36737, 39267, 36020, 26326, 14986, 8582, 9956, 17427, 29099, 42930, 52547, 51537, 43625, 38128, 36578, 36122, 38462, 43031, 42609, 33669, 20862, 10223, 5482, 8306, 17562, 30926, 45533, 54409, 51659, 42975, 38157, 37449, 37364, 39145, 42402, 41348, 32167, 18411, 7643, 4786, 9769, 20524, 35257, 49422, 54954, 49864, 42553, 39296, 38075, 37716, 39461, 40545, 36115, 25284, 12731, 5397, 6639, 14720, 27242, 42493, 54723, 56187, 48402, 40955, 37401, 35024, 34190, 35946, 36829, 32328, 22378, 12745, 9654, 13699, 22353, 34500, 47479]], "framecount": 12.0, "time": 1489540132726}
{"dataframe": [[32263, 32527, 32704, 32923, 33033, 33145, 33533, 33933, 33883, 33728, 33627, 32656, 31063, 30695, 31664, 32255, 32339, 33007, 33672, 33258, 32691, 33008, 33357, 32996, 32747, 33323, 34059, 33946, 32873, 31490, 30650, 30812, 31546, 32462, 33631, 34287, 33686, 32939, 33129, 33437, 33009, 32454, 32701, 33448, 33418, 32365, 31604, 31860, 32171, 31711, 31420, 32539, 34297, 34852, 33867, 32637, 32347, 32865, 33273, 33266, 33017, 32463, 31869, 31742, 31843, 31839, 32271, 33403, 34247, 33906, 32838, 32028, 31975, 32600, 33336, 33810, 34204, 34151, 32880, 30921, 29907, 30586, 32095, 33477, 34605, 34915, 33946, 33186, 33245, 31940, 29616, 29962, 32861, 34756, 35075, 34992, 34281, 33145, 32044, 30525], [4834, 8479, 18726, 25657, 27437, 27120, 25557, 23342, 24604, 34491, 51753, 65535, 65535, 59957, 45657, 27765, 10135, 2565, 9865, 22016, 27546, 27964, 27841, 25645, 22610, 26158, 39677, 56462, 65535, 65535, 57432, 42256, 22921, 6508, 2776, 12259, 23265, 27383, 27417, 26783, 25177, 24779, 30610, 44730, 61241, 65535, 64670, 51449, 34013, 15181, 3181, 5912, 17254, 24639, 27301, 29650, 28576, 24009, 24649, 34952, 50607, 63857, 65535, 58658, 44954, 29693, 13435, 4242, 9687, 20856, 26057, 27764, 29285, 26613, 21656, 23500, 36731, 56127, 65535, 65535, 56278, 42869, 26093, 8022, 1262, 9995, 21348, 26230, 28566, 30815, 30102, 27537, 29445, 39787, 54215, 63883, 63677, 53552, 36675, 18867], [48907, 46930, 40464, 36354, 35880, 36195, 36776, 37552, 35855, 29351, 20087, 13999, 14836, 20431, 27318, 35434, 44514, 49499, 46472, 40015, 36289, 34773, 33915, 35113, 36982, 35137, 28346, 20009, 14835, 15311, 20838, 29706, 39892, 47221, 47208, 41645, 37332, 36450, 36213, 36171, 37181, 37101, 32959, 24713, 16525, 13769, 17270, 23907, 32295, 41987, 48598, 47223, 40550, 35926, 35233, 35632, 36441, 37625, 36590, 31078, 22539, 15772, 14728, 18897, 25754, 34308, 43044, 47551, 45367, 40630, 37876, 36218, 35032, 36221, 37996, 35648, 27959, 18632, 13452, 15165, 21165, 28781, 38386, 47479, 49458, 43630, 37471, 35237, 34704, 34861, 36317, 37066, 34139, 27019, 18887, 14646, 16316, 22214, 30497, 39976], [27359, 28918, 31445, 32500, 32368, 32060, 31649, 31525, 32359, 34472, 37259, 38636, 37441, 35226, 33239, 30805, 28236, 27606, 29331, 31311, 32267, 32740, 32909, 32489, 32054, 32628, 34591, 36947, 37915, 36958, 34935, 32368, 29599, 28021, 28856, 30952, 32162, 32328, 32272, 31883, 31349, 31600, 33180, 35939, 38391, 38567, 36621, 34013, 31200, 28543, 27398, 28719, 31455, 33214, 33037, 32212, 31787, 31546, 31735, 33356, 36136, 38088, 37984, 36474, 34210, 31145, 28222, 27490, 29243, 31162, 31987, 32728, 33180, 32266, 31357, 32338, 34698, 36953, 37910, 36995, 35119, 33071, 30260, 27674, 28037, 30767, 32424, 32475, 32557, 32383, 31464, 31166, 32611, 35362, 37849, 38322, 36717, 34571, 32426, 29736], [29645, 30574, 32233, 32294, 31867, 32061, 32051, 31788, 32163, 33478, 35176, 36250, 36392, 35715, 33711, 30864, 29314, 29893, 31094, 31755, 32191, 32595, 32659, 32484, 32395, 32680, 33697, 35136, 35868, 35421, 34404, 33208, 31655, 30124, 29687, 30615, 31985, 32856, 32767, 32135, 32072, 32500, 32716, 33494, 35115, 36000, 35613, 34750, 33307, 31193, 29634, 29828, 31364, 32528, 32467, 32110, 32199, 32249, 32143, 32699, 34053, 35275, 35860, 35835, 34784, 32565, 30319, 29569, 30523, 31794, 32321, 32572, 32805, 32359, 31593, 31789, 33110, 34846, 36332, 36575, 35132, 32980, 30962, 29512, 29717, 31355, 32343, 32497, 33104, 33171, 31760, 30871, 31881, 33778, 35734, 37008, 36499, 34766, 32975, 30843], [39267, 37444, 34331, 32478, 32177, 32224, 32528, 33330, 33466, 31689, 28753, 26943, 27632, 30027, 32784, 35788, 38682, 39172, 36273, 33043, 32014, 31926, 31855, 32722, 33982, 33842, 31708, 28592, 26619, 27337, 30025, 33211, 36516, 39004, 38607, 35736, 33598, 33046, 32221, 31493, 32504, 33728, 32613, 29704, 27348, 26922, 28587, 31738, 35355, 38380, 39342, 37340, 34202, 32535, 32073, 31649, 31975, 33194, 33577, 32092, 29454, 27375, 27515, 29829, 32757, 35470, 37833, 38571, 36700, 33972, 32531, 32063, 31906, 32622, 33904, 33899, 31362, 27744, 26145, 27531, 30167, 33111, 36729, 39705, 39460, 36244, 33280, 32203, 31898, 31628, 31911, 32743, 32834, 31003, 28313, 27229, 28581, 31359, 34545, 37349], [41892, 31494, 26928, 29176, 31266, 32570, 35130, 35156, 29733, 22236, 18793, 22610, 30480, 37364, 42606, 46816, 46220, 37957, 28975, 27719, 30815, 31858, 32632, 34654, 34149, 29134, 22496, 19869, 24043, 31178, 37103, 42567, 47303, 45679, 36186, 28381, 28942, 31817, 32298, 33399, 34696, 32183, 25983, 20139, 19585, 25651, 33914, 40563, 45951, 48410, 43148, 32585, 26934, 28685, 30898, 31969, 34684, 36045, 31854, 23999, 18564, 20448, 28329, 36334, 41995, 46694, 47551, 39843, 29449, 27030, 30574, 32054, 32576, 34977, 35381, 30143, 21797, 17605, 22068, 31049, 38339, 43428, 47116, 45509, 36733, 28970, 29233, 31995, 31922, 32476, 34240, 32563, 26659, 20673, 19717, 25300, 33376, 39986, 45237, 48153], [53595, 52445, 43470, 36779, 35641, 36170, 37381, 39902, 40147, 33746, 21876, 10932, 6404, 9332, 18640, 33062, 48561, 56836, 52909, 43055, 36814, 35135, 34837, 36256, 39149, 38791, 30951, 18296, 8818, 7398, 12961, 23594, 38059, 51385, 55485, 48902, 40285, 36439, 35403, 35273, 37731, 40700, 38060, 27851, 15387, 7737, 7794, 14307, 25453, 39668, 51905, 54660, 48123, 41436, 39327, 38410, 36773, 35564, 33984, 29532, 21263, 12810, 10580, 16267, 25764, 36026, 45981, 51143, 46396, 35766, 30135, 33405, 39784, 44172, 46357, 45288, 36984, 21356, 5462, 0, 0, 12597, 33307, 53177, 63585, 61573, 53014, 45339, 39390, 33669, 29912, 28793, 26019, 18051, 9186, 7224, 13926, 25587, 39176, 52347]], "framecount": 13.0, "time": 1489540132835}
{"dataframe": [[32263, 32527, 32704, 32923, 33033, 33145, 33533, 33933, 33883, 33728, 33627, 32656, 31063, 30695, 31664, 32255, 32339, 33007, 33672, 33258, 32691, 33008, 33357, 32996, 32747, 33323, 34059, 33946, 32873, 31490, 30650, 30812, 31546, 32462, 33631, 34287, 33686, 32939, 33129, 33437, 33009, 32454, 32701, 33448, 33418, 32365, 31604, 31860, 32171, 31711, 31420, 32539, 34297, 34852, 33867, 32637, 32347, 32865, 33273, 33266, 33017, 32463, 31869, 31742, 31843, 31839, 32271, 33403, 34247, 33906, 32838, 32028, 31975, 32600, 33336, 33810, 34204, 34151, 32880, 30921, 29907, 30586, 32095, 33477, 34605, 34915, 33946, 33186, 33245, 31940, 29616, 29962, 32861, 34756, 35075, 34992, 34281, 33145, 32044, 30525], [4834, 8479, 18726, 25657, 27437, 27120, 25557, 23342, 24604, 34491, 51753, 65535, 65535, 59957, 45657, 27765, 10135, 2565, 9865, 22016, 27546, 27964, 27841, 25645, 22610, 26158, 39677, 56462, 65535, 65535, 57432, 42256, 22921, 6508, 2776, 12259, 23265, 27383, 27417, 26783, 25177, 24779, 30610, 44730, 61241, 65535, 64670, 51449, 34013, 15181, 3181, 5912, 17254, 24639, 27301, 29650, 28576, 24009, 24649, 34952, 50607, 63857, 65535, 58658, 44954, 29693, 13435, 4242, 9687, 20856, 26057, 27764, 29285, 26613, 21656, 23500, 36731, 56127, 65535, 65535, 56278, 42869, 26093, 8022, 1262, 9995, 21348, 26230, 28566, 30815, 30102, 27537, 29445, 39787, 54215, 63883, 63677, 53552, 36675, 18867], [48907, 46930, 40464, 36354, 35880, 36195, 36776, 37552, 35855, 29351, 20087, 13999, 14836, 20431, 27318, 35434, 44514, 49499, 46472, 40015, 36289, 34773, 33915, 35113, 36982, 35137, 28346, 20009, 14835, 15311, 20838, 29706, 39892, 47221, 47208, 41645, 37332, 36450, 36213, 36171, 37181, 37101, 32959, 24713, 16525, 13769, 17270, 23907, 32295, 41987, 48598, 47223, 40550, 35926, 35233, 35632, 36441, 37625, 36590, 31078, 22539, 15772, 14728, 18897, 25754, 34308, 43044, 47551, 45367, 40630, 37876, 36218, 35032, 36221, 37996, 35648, 27959, 18632, 13452, 15165, 21165, 28781, 38386, 47479, 49458, 43630, 37471, 35237, 34704, 34861, 36317, 37066, 34139, 27019, 18887, 14646, 16316, 22214, 30497, 39976], [27359, 28918, 31445, 32500, 32368, 32060, 31649, 31525, 32359, 34472, 37259, 38636, 37441, 35226, 33239, 30805, 28236, 27606, 29331, 31311, 32267, 32740, 32909, 32489, 32054, 32628, 34591, 36947, 37915, 36958, 34935, 32368, 29599, 28021, 28856, 30952, 32162, 32328, 32272, 31883, 31349, 31600, 33180, 35939, 38391, 38567, 36621, 34013, 31200, 28543, 27398, 28719, 31455, 33214, 33037, 32212, 31787, 31546, 31735, 33356, 36136, 38088, 37984, 36474, 34210, 31145, 28222, 27490, 29243, 31162, 31987, 32728, 33180, 32266, 31357, 32338, 34698, 36953, 37910, 36995, 35119, 33071, 30260, 27674, 28037, 30767, 32424, 32475, 32557, 32383, 31464, 31166, 32611, 35362, 37849, 38322, 36717, 34571, 32426, 29736], [29645, 30574, 32233, 32294, 31867, 32061, 32051, 31788, 32163, 33478, 35176, 36250, 36392, 35715, 33711, 30864, 29314, 29893, 31094, 31755, 32191, 32595, 32659, 32484, 32395, 32680, 33697, 35136, 35868, 35421, 34404, 33208, 31655, 30124, 29687, 30615, 31985, 32856, 32767, 32135, 32072, 32500, 32716, 33494, 35115, 36000, 35613, 34750, 33307, 31193, 29634, 29828, 31364, 32528, 32467, 32110, 32199, 32249, 32143, 32699, 34053, 35275, 35860, 35835, 34784, 32565, 30319, 29569, 30523, 31794, 32321, 32572, 32805, 32359, 31593, 31789, 33110, 34846, 36332, 36575, 35132, 32980, 30962, 29512, 29717, 31355, 32343, 32497, 33104, 33171, 31760, 30871, 31881, 33778, 35734, 37008, 36499, 34766, 32975, 30843], [39267, 37444, 34331, 32478, 32177, 32224, 32528, 33330, 33466, 31689, 28753, 26943, 27632, 30027, 32784, 35788, 38682, 39172, 36273, 33043, 32014, 31926, 31855, 32722, 33982, 33842, 31708, 28592, 26619, 27337, 30025, 33211, 36516, 39004, 38607, 35736, 33598, 33046, 32221, 31493, 32504, 33728, 32613, 29704, 27348, 26922, 28587, 31738, 35355, 38380, 39342, 37340, 34202, 32535, 32073, 31649, 31975, 33194, 33577, 32092, 29454, 27375, 27515, 29829, 32757, 35470, 37833, 38571, 36700, 33972, 32531, 32063, 31906, 32622, 33904, 33899, 31362, 27744, 26145, 27531, 30167, 33111, 36729, 39705, 39460, 36244, 33280, 32203, 31898, 31628, 31911, 32743, 32834, 31003, 28313, 27229, 28581, 31359, 34545, 37349], [41892, 31494, 26928, 29176, 31266, 32570, 35130, 35156, 29733, 22236, 18793, 22610, 30480, 37364, 42606, 46816, 46220, 37957, 28975, 27719, 30815, 31858, 32632, 34654, 34149, 29134, 22496, 19869, 24043, 31178, 37103, 42567, 47303, 45679, 36186, 28381, 28942, 31817, 32298, 33399, 34696, 32183, 25983, 20139, 19585, 25651, 33914, 40563, 45951, 48410, 43148, 32585, 26934, 28685, 30898, 31969, 34684, 36045, 31854, 23999, 18564, 20448, 28329, 36334, 41995, 46694, 47551, 39843, 29449, 27030, 30574, 32054, 32576, 34977, 35381, 30143, 21797, 17605, 22068, 31049, 38339, 43428, 47116, 45509, 36733, 28970, 29233, 31995, 31922, 32476, 34240, 32563, 26659, 20673, 19717, 25300, 33376, 39986, 45237, 48153], [53595, 52445, 43470, 36779, 35641, 36170, 37381, 39902, 40147, 33746, 21876, 10932, 6404, 9332, 18640, 33062, 48561, 56836, 52909, 43055, 36814, 35135, 34837, 36256, 39149, 38791, 30951, 18296, 8818, 7398, 12961, 23594, 38059, 51385, 55485, 48902, 40285, 36439, 35403, 35273, 37731, 40700, 38060, 27851, 15387, 7737, 7794, 14307, 25453, 39668, 51905, 54660, 48123, 41436, 39327, 38410, 36773, 35564, 33984, 29532, 21263, 12810, 10580, 16267, 25764, 36026, 45981, 51143, 46396, 35766, 30135, 33405, 39784, 44172, 46357, 45288, 36984, 21356, 5462, 0, 0, 12597, 33307, 53177, 63585, 61573, 53014, 45339, 39390, 33669, 29912, 28793, 26019, 18051, 9186, 7224, 13926, 25587, 39176, 52347]], "framecount": 14.0, "time": 1489540133007}
{"dataframe": [[29378, 30108, 31945, 33373, 34442, 35064, 34651, 33944, 33810, 33531, 32489, 31287, 30586, 30801, 31959, 33090, 33407, 33373, 33285, 32826, 32463, 32810, 33270, 33279, 33278, 33525, 33431, 32525, 31573, 31762, 32624, 32723, 32344, 32785, 33525, 33098, 31936, 31608, 32296, 33086, 33533, 33713, 33789, 33920, 33843, 33148, 32270, 31700, 30941, 30333, 31373, 33518, 34471, 33592, 32115, 31685, 32963, 34317, 34291, 34294, 34932, 33734, 30556, 29108, 30739, 32867, 33377, 32378, 31326, 31779, 33671, 35348, 35540, 34194, 32238, 31361, 32337, 33521, 33333, 32641, 32080, 30781, 29782, 31124, 33518, 34843, 35616, 35341, 32408, 29599, 30708, 33483, 34323, 34188, 34358, 33791, 32437, 31271, 30390, 30130], [7244, 7118, 16174, 25171, 29247, 30321, 28559, 23582, 20760, 27973, 46336, 65003, 65535, 63161, 49241, 30844, 10560, 1048, 9453, 22828, 27456, 27321, 28116, 26028, 22128, 24855, 37129, 54001, 65535, 65535, 57707, 43075, 25814, 7473, 0, 10203, 27058, 32336, 28502, 26206, 24894, 22743, 26700, 40986, 58211, 65535, 65389, 53805, 36758, 18524, 6251, 6736, 16760, 25791, 29706, 29994, 25993, 20232, 20727, 31226, 47490, 62234, 65535, 65535, 52118, 30514, 9170, 1141, 11134, 25266, 28640, 25200, 24170, 23787, 22092, 24828, 36204, 53119, 65535, 65535, 58610, 45271, 30184, 12150, 2013, 8754, 19363, 21587, 24320, 32276, 34382, 28520, 26854, 36896, 53055, 63546, 62881, 54785, 41852, 23896], [47299, 48161, 43234, 37678, 34533, 34105, 36050, 38049, 37133, 31992, 23387, 15845, 14411, 18199, 24127, 33057, 44139, 49746, 45460, 38526, 36513, 36810, 36025, 36468, 37814, 35628, 28846, 20730, 15123, 14401, 18703, 26801, 37131, 46441, 49619, 45143, 38628, 35688, 35467, 35594, 36367, 37134, 34662, 27034, 17517, 12545, 15012, 22531, 32232, 42157, 48248, 46932, 40950, 36180, 34550, 35057, 37135, 39410, 38827, 32710, 22480, 14447, 13004, 16624, 23622, 34168, 45049, 49887, 46311, 39485, 35894, 35801, 36099, 36398, 37097, 35847, 29916, 20740, 14082, 14223, 19788, 27616, 37129, 46619, 49976, 44625, 37572, 35362, 35570, 34597, 34111, 35547, 35649, 30310, 21055, 14806, 15536, 20972, 28851, 38854], [27625, 28160, 30540, 32161, 32604, 32627, 32084, 31516, 32199, 34146, 36292, 37479, 37111, 35810, 34319, 31986, 28725, 27276, 29398, 32017, 32255, 31838, 32245, 32144, 31560, 32215, 34308, 36575, 37902, 37798, 36289, 33645, 30396, 27907, 27813, 29679, 31285, 32061, 32747, 32734, 31792, 31454, 32625, 34990, 37694, 39027, 37893, 35064, 31602, 28362, 26998, 28359, 30827, 32466, 33047, 32983, 32388, 31468, 31107, 32794, 36269, 38573, 38181, 36571, 34342, 31096, 28287, 27674, 28984, 30857, 32142, 32482, 32504, 32643, 32451, 32358, 33965, 36745, 38066, 37377, 35772, 32988, 29279, 27026, 27811, 30565, 32973, 33520, 32851, 32493, 32243, 31429, 31647, 34208, 37079, 37918, 37005, 35288, 32823, 29851], [29030, 29484, 31369, 32163, 32154, 32597, 32704, 32204, 32376, 33312, 34143, 34829, 35272, 34931, 34119, 33301, 31879, 30163, 30063, 31511, 32267, 32185, 32666, 33023, 32208, 31636, 32745, 34563, 35644, 35699, 34845, 33363, 31742, 30432, 30068, 30695, 31465, 32347, 33545, 33818, 32670, 31703, 31931, 32917, 34293, 35637, 36069, 35165, 33421, 31585, 30156, 29702, 30523, 31766, 32472, 32846, 33112, 32816, 32097, 32044, 33231, 34825, 35736, 35546, 34183, 32508, 31758, 31371, 30628, 30840, 32291, 33034, 32736, 32627, 32238, 31260, 31617, 33730, 35514, 36281, 36307, 34698, 31806, 29637, 28933, 29575, 31470, 33241, 33624, 33207, 32661, 32183, 32472, 33558, 34633, 35445, 35773, 35106, 33607, 31694], [38670, 37752, 35291, 32863, 31435, 31304, 32306, 33614, 34232, 33065, 29736, 26508, 26284, 28824, 32271, 36044, 39213, 39403, 36284, 33126, 32224, 32214, 32012, 32578, 33628, 33470, 31659, 29040, 27071, 27317, 29814, 33122, 36306, 38759, 38881, 36061, 32887, 31935, 32357, 32567, 32929, 33628, 33216, 30726, 27561, 26316, 28021, 31331, 34675, 37656, 39249, 37688, 34108, 31966, 31917, 32219, 32784, 34032, 34493, 32854, 29860, 27207, 26347, 27887, 31173, 35170, 38835, 40001, 37269, 33357, 31917, 32376, 32645, 33052, 33857, 33612, 31491, 28298, 26147, 27001, 29983, 32869, 35833, 39004, 39460, 36328, 33517, 33028, 32611, 31609, 31807, 33167, 33482, 31313, 28081, 26715, 27987, 30506, 33588, 37007], [44037, 33788, 27294, 28476, 30526, 31273, 34071, 35994, 32378, 25166, 19730, 20376, 27091, 35032, 40977, 46200, 48685, 42218, 30210, 25255, 28994, 32317, 33488, 35531, 35403, 29816, 22178, 18858, 22329, 29361, 36158, 42372, 47921, 48155, 39228, 28534, 26360, 29951, 31953, 33371, 35401, 33943, 27474, 20434, 18963, 24504, 32551, 39569, 45730, 49066, 44563, 33676, 26548, 27515, 30171, 31506, 34239, 36448, 33633, 26219, 19735, 20062, 26549, 33526, 39640, 46395, 49195, 42089, 30591, 26340, 29730, 32648, 33525, 34815, 34649, 30415, 23429, 18786, 21031, 28449, 35877, 41897, 47302, 48236, 40051, 29076, 26514, 30806, 33189, 33343, 34201, 33385, 28284, 21593, 19500, 24383, 31761, 37579, 42639, 46698], [59923, 56239, 43480, 31168, 24285, 21657, 24555, 33951, 43736, 45764, 37664, 24470, 14700, 12945, 17400, 25689, 36826, 45305, 44238, 37324, 34612, 37862, 42305, 45557, 46703, 43901, 35184, 20879, 7042, 1710, 6491, 17542, 32067, 46941, 55172, 52713, 45605, 41734, 40446, 38225, 36643, 37162, 35389, 26730, 14478, 7313, 9267, 17111, 27555, 40256, 51045, 51344, 41601, 33995, 34628, 37715, 39967, 43943, 47543, 43410, 29340, 12867, 3085, 2145, 8429, 21825, 39992, 54119, 56030, 48966, 42948, 40735, 39151, 39106, 42088, 42810, 34446, 18289, 3728, 0, 1723, 11538, 28685, 50807, 65535, 65535, 55616, 46169, 38814, 31797, 28075, 28151, 27343, 22717, 15836, 10716, 11418, 18609, 29575, 42153]], "framecount": 15.0, "time": 1489540133022}
{"dataframe": [[31379, 33511, 34556, 34030, 33157, 32553, 32435, 33333, 34334, 33906, 32893, 32883, 33087, 32157, 30835, 30477, 30951, 31720, 33015, 34388, 34613, 33941, 33539, 33205, 32525, 32470, 33449, 34029, 33174, 31833, 31240, 31154, 30936, 31044, 32277, 34159, 34999, 34109, 33040, 33224, 33874, 33727, 32865, 31940, 31575, 32179, 32832, 32154, 31040, 31424, 32852, 33882, 34416, 34336, 33433, 32201, 31026, 31018, 33126, 34963, 34088, 32711, 33219, 33683, 32370, 30838, 30421, 31089, 32650, 33779, 33475, 33157, 33585, 33506, 32900, 32896, 33512, 34017, 33586, 32228, 31440, 31584, 31390, 31424, 32788, 33891, 33572, 32945, 32416, 32012, 32460, 33163, 33323, 34050, 35388, 34859, 32046, 30249, 31006, 31707], [8016, 5147, 14342, 23849, 27724, 28526, 27545, 24736, 23837, 30325, 44761, 59050, 64717, 62506, 54228, 36822, 15556, 5007, 9361, 18499, 23895, 25426, 25679, 25841, 25647, 26448, 33871, 49938, 64652, 65535, 59231, 47032, 31293, 14118, 4669, 8165, 17654, 24569, 27526, 27195, 24663, 23709, 27967, 39850, 57113, 65535, 65535, 56034, 41233, 22456, 5931, 2826, 12274, 22500, 27864, 30049, 29162, 25497, 23125, 27983, 42936, 60189, 65535, 61578, 52097, 39703, 22582, 7434, 4525, 12959, 21789, 25965, 28118, 27770, 24561, 25196, 35096, 50210, 62372, 65535, 62040, 49156, 31008, 12040, 1108, 6112, 19594, 26725, 27213, 29064, 30811, 28390, 27618, 35953, 49622, 59442, 62793, 59642, 46925, 26936], [47239, 48196, 42574, 37332, 35557, 35289, 35938, 37414, 37061, 32696, 25273, 18050, 14376, 15702, 21940, 32036, 42844, 49186, 47543, 40999, 36643, 36202, 36015, 35475, 36287, 36121, 31077, 22221, 15226, 14412, 19185, 26471, 34850, 43467, 48161, 45569, 40061, 37690, 37362, 36083, 35074, 35237, 33855, 28271, 20117, 14666, 15446, 21435, 29868, 38777, 46026, 48224, 43991, 37529, 34286, 34750, 36288, 37328, 37089, 33992, 26896, 18365, 13652, 15332, 21935, 31099, 41049, 48476, 48709, 42441, 36773, 35127, 34897, 35209, 36754, 36943, 32282, 23543, 16213, 14794, 18206, 23993, 32873, 43699, 49464, 46040, 39537, 37093, 37606, 37508, 36372, 34472, 31656, 27453, 21667, 16919, 16600, 20740, 28049, 37796], [27696, 28037, 30581, 32696, 32993, 32584, 32200, 31646, 31542, 32820, 35174, 37302, 38203, 37450, 35037, 31687, 28486, 26884, 28377, 31622, 33051, 32416, 32233, 32469, 31891, 31699, 33389, 36163, 38171, 38202, 36237, 33368, 30645, 28500, 27949, 29721, 31818, 32000, 31480, 32009, 32645, 32472, 32673, 34352, 36790, 38299, 37751, 35299, 32191, 29673, 28119, 27988, 29888, 32507, 33471, 32589, 31519, 31327, 31963, 33164, 34958, 37041, 38359, 37798, 35174, 31668, 28733, 27297, 28218, 30933, 32906, 33063, 32654, 32240, 31543, 31270, 32797, 36042, 38359, 37780, 35962, 34446, 32001, 28839, 27856, 29581, 31231, 31444, 31413, 31689, 31866, 32328, 33570, 35382, 37167, 37846, 36872, 35065, 32828, 29779], [29902, 29471, 30697, 32036, 32499, 32470, 32189, 31887, 32092, 32769, 33760, 35182, 36284, 35896, 34389, 32850, 31199, 29800, 30155, 31656, 32245, 32334, 32914, 32865, 31855, 31431, 32278, 33932, 35795, 36852, 36224, 34073, 31382, 29460, 29192, 30317, 31740, 32598, 32930, 33143, 33244, 33105, 32817, 32774, 33587, 35055, 35959, 35511, 33751, 31228, 29373, 29624, 31310, 32297, 32222, 32358, 32664, 32476, 32354, 32735, 33471, 34751, 36066, 36124, 34727, 32661, 30617, 29556, 30149, 31525, 32473, 32935, 33129, 32961, 32443, 31686, 31564, 33164, 35236, 35729, 35309, 34891, 33412, 31274, 30389, 30539, 30649, 31215, 32394, 33012, 32596, 31939, 31960, 33101, 34895, 36175, 36308, 35451, 33758, 31496], [39181, 38429, 35573, 33129, 32121, 31864, 32062, 32870, 33626, 32877, 30220, 27731, 27403, 28604, 30713, 34380, 38305, 39519, 37415, 34237, 32232, 31881, 32305, 32744, 33219, 33483, 32344, 29540, 27176, 27328, 29515, 32161, 35021, 38051, 39205, 36990, 33857, 32572, 32341, 32115, 32648, 33589, 33169, 30825, 27958, 26565, 27636, 30636, 34197, 37238, 39057, 38648, 35820, 32578, 31159, 31526, 32413, 33325, 33969, 33194, 30442, 27536, 26897, 28634, 31308, 34230, 37267, 39160, 38035, 34668, 32388, 32231, 32395, 32398, 33003, 33446, 32239, 29556, 27301, 27136, 29083, 32105, 35463, 38591, 39593, 36931, 33174, 32013, 32613, 32444, 32068, 32706, 33186, 31892, 29383, 27678, 27819, 29612, 32769, 36426], [44801, 35833, 28707, 29602, 32703, 33343, 34207, 34900, 31687, 24870, 19053, 19496, 26219, 33550, 39091, 45080, 49023, 44380, 33480, 27373, 29145, 31751, 32495, 33762, 34141, 30586, 24100, 19750, 21836, 28696, 35595, 41192, 46008, 46616, 39360, 30253, 28641, 31958, 32788, 32705, 34362, 33876, 28536, 21395, 18325, 22560, 30881, 38168, 43671, 48022, 47023, 37725, 28347, 27466, 30368, 31217, 32672, 34719, 32910, 27136, 21503, 20706, 26011, 33160, 38818, 44059, 47420, 43448, 33547, 27836, 29668, 32029, 32444, 34039, 34962, 31329, 24264, 19094, 20783, 28007, 34961, 40279, 45999, 48619, 42301, 31536, 27154, 29435, 31171, 32045, 34104, 34068, 29567, 23443, 20631, 23553, 29805, 36130, 42238, 47424], [53269, 56228, 48710, 38385, 32459, 30964, 33361, 38935, 42338, 38692, 29329, 18915, 10888, 7499, 11281, 23209, 39765, 52503, 53858, 46743, 40831, 38377, 36122, 35601, 38386, 40068, 35733, 25085, 13090, 6539, 7696, 15295, 29911, 48005, 57257, 53392, 47183, 42704, 34668, 27971, 30118, 35680, 36887, 32292, 23122, 14501, 12302, 16196, 23983, 35775, 47925, 52256, 46647, 38716, 34820, 33914, 34956, 39276, 43733, 41347, 30049, 15802, 6577, 5678, 12115, 24550, 40672, 53617, 55740, 48585, 41156, 37098, 34417, 34298, 38017, 40959, 37124, 25748, 12637, 5025, 5107, 11740, 25034, 43021, 57386, 60308, 54230, 47232, 41762, 36612, 33633, 33649, 32066, 24410, 13090, 5554, 6272, 13913, 26095, 41612]], "framecount": 16.0, "time": 1489540133132}
{"dataframe": [[31194, 31774, 33596, 33941, 32649, 32145, 33132, 34265, 34454, 33732, 32996, 33080, 33633, 33173, 31117, 29306, 29650, 31494, 33268, 34108, 33467, 32735, 34545, 37253, 36441, 32873, 30765, 30538, 30287, 30107, 30844, 32154, 33071, 33200, 33652, 35220, 35799, 33834, 31892, 31958, 32320, 32125, 32491, 33006, 32718, 32229, 31981, 31920, 32443, 33114, 33141, 33287, 34004, 34011, 32928, 31933, 31457, 31226, 31839, 33678, 35123, 34505, 32930, 32445, 32518, 31412, 30169, 31231, 33613, 34313, 33513, 33247, 33200, 32390, 31903, 32586, 33313, 33571, 34078, 34327, 33537, 32540, 31359, 29353, 28679, 31209, 34329, 35241, 34722, 34094, 33518, 33334, 33461, 33085, 32356, 32102, 32188, 31984, 31566, 31466], [10162, 4722, 10194, 20488, 28876, 31437, 28137, 23058, 21845, 27934, 41658, 57727, 65535, 62755, 54477, 42801, 23917, 5538, 2861, 14457, 24629, 27531, 27604, 25684, 22362, 23405, 33203, 49289, 63157, 65535, 61847, 50331, 33846, 14879, 1761, 3333, 17335, 29885, 31909, 28100, 25334, 24089, 25402, 34053, 49617, 63321, 65535, 61805, 47980, 28667, 10019, 1835, 7733, 18916, 26313, 29940, 30148, 26112, 23570, 28936, 41310, 55739, 65535, 64689, 53327, 38352, 23160, 9473, 5351, 13966, 23880, 26832, 27354, 27516, 24811, 23579, 30825, 45483, 59569, 65535, 62808, 51460, 35927, 19600, 7265, 6236, 15283, 23175, 26064, 28236, 28349, 24683, 24192, 33259, 48997, 63186, 65535, 62774, 48866, 30507], [46357, 48079, 43002, 37526, 35330, 34939, 35560, 37244, 37955, 34974, 27192, 17950, 14041, 16878, 21784, 28431, 39247, 48645, 48738, 42338, 37501, 35719, 35234, 36509, 38115, 36457, 30739, 22932, 16210, 14137, 17548, 24374, 33638, 44542, 51309, 47682, 38247, 33663, 34938, 35985, 36081, 36857, 35716, 30225, 22371, 16532, 15663, 19235, 25736, 35195, 45191, 49083, 44684, 38458, 35719, 35394, 36359, 38358, 38205, 33361, 25577, 18333, 14576, 15991, 22033, 30646, 39935, 47056, 47724, 41950, 36360, 35177, 35867, 36448, 37545, 37555, 33378, 25075, 17009, 13962, 16816, 23252, 31408, 40650, 48156, 48751, 42426, 36241, 34635, 35516, 36618, 37456, 36269, 31083, 23188, 16428, 13607, 16068, 24232, 35765], [27375, 28122, 31104, 32737, 32320, 32016, 32296, 32039, 31524, 32261, 34899, 37926, 38774, 37009, 34527, 32092, 29234, 27371, 28428, 31009, 32438, 32707, 32716, 32170, 31468, 31804, 33350, 35608, 37686, 38163, 36693, 34368, 31582, 28299, 26777, 29123, 32413, 32822, 31920, 32180, 32273, 31597, 32053, 34107, 36461, 37870, 37552, 35922, 33785, 30879, 27960, 27637, 30061, 32074, 32359, 32284, 32036, 31204, 31204, 33131, 35771, 37454, 37686, 36810, 35255, 32915, 29800, 27593, 28321, 30912, 32375, 32248, 32057, 31961, 31523, 31502, 32914, 35670, 38225, 38744, 37041, 34452, 31896, 29254, 27114, 27397, 30356, 33155, 33595, 32572, 31698, 31392, 31902, 33758, 36370, 38041, 37955, 36436, 33838, 30756], [29708, 29574, 30728, 31478, 31514, 32233, 33503, 33486, 32297, 32009, 33349, 35428, 36942, 36291, 33516, 31214, 30628, 30373, 30309, 31409, 32663, 32920, 32989, 33225, 32746, 31666, 31327, 32574, 34695, 36072, 36037, 35195, 33614, 31139, 29567, 30428, 31749, 31737, 31883, 32722, 32516, 31578, 31861, 33344, 34860, 35906, 36098, 35229, 33683, 31822, 30080, 29560, 30756, 32263, 32835, 32982, 32851, 31862, 30973, 31640, 33442, 35007, 35642, 35543, 35209, 34328, 32298, 30244, 29887, 30789, 31620, 32216, 32548, 32461, 32372, 32216, 31997, 33123, 35632, 36985, 36266, 34944, 33206, 30572, 28488, 28424, 29954, 32094, 33722, 33905, 33357, 33047, 32625, 32472, 33634, 35081, 35235, 34734, 34384, 33318], [38759, 38416, 35863, 33069, 31731, 31914, 32716, 33510, 33952, 33217, 30626, 27673, 26931, 28386, 30332, 32954, 36885, 39837, 38899, 35246, 32606, 32014, 32125, 32655, 33650, 33798, 32024, 29118, 26977, 26869, 28748, 31838, 35267, 38242, 39552, 37892, 34313, 32004, 31937, 32316, 32464, 33012, 33240, 31737, 29005, 27213, 27539, 29436, 32385, 36170, 39257, 39341, 36477, 33404, 31925, 31596, 31958, 32909, 33586, 33015, 30992, 28330, 26820, 27855, 30931, 34299, 37015, 38856, 38484, 35357, 32343, 31776, 32161, 32254, 33021, 33915, 32774, 29792, 27479, 27196, 28758, 31786, 35244, 37821, 38723, 37216, 34131, 32190, 32039, 32069, 32411, 33783, 34365, 32435, 29341, 27251, 26885, 28382, 31643, 35706], [46734, 37511, 28063, 27309, 30868, 32231, 33819, 36106, 34224, 27546, 20657, 18887, 24176, 32371, 38651, 43429, 47153, 44977, 35788, 28667, 28949, 30649, 31013, 33833, 36737, 33512, 25105, 18473, 18968, 25876, 34463, 41663, 47018, 48390, 42183, 31560, 26304, 28696, 31841, 33203, 34782, 34813, 30469, 23472, 19488, 22262, 29020, 35299, 41043, 46698, 47352, 39205, 29935, 28893, 31817, 31994, 32438, 34298, 32726, 26974, 21162, 19866, 24879, 32657, 38894, 43757, 47437, 45236, 35423, 26916, 27138, 30932, 32672, 34327, 35849, 33330, 26618, 20639, 20571, 26179, 32925, 38783, 44280, 46989, 42528, 33001, 27584, 29462, 32381, 33417, 34954, 35570, 31485, 23945, 19166, 21012, 26841, 33331, 40636, 47544], [56123, 61127, 53609, 42056, 35065, 31810, 29944, 31156, 34872, 35802, 29884, 19892, 13014, 12278, 15528, 23031, 36898, 51706, 56805, 51013, 43124, 37365, 32602, 31627, 36526, 41180, 37493, 24642, 10178, 3287, 7114, 18581, 33355, 47799, 56736, 55152, 46010, 38446, 35350, 33711, 34124, 37179, 37412, 30407, 19344, 10687, 8341, 12879, 23006, 36708, 50442, 57274, 52237, 40973, 33662, 32378, 33722, 36536, 39654, 38859, 30768, 18411, 9840, 9840, 16732, 27143, 38964, 48944, 51822, 46536, 39123, 33886, 29953, 29215, 35062, 43175, 44167, 35054, 22474, 14057, 11319, 13370, 21709, 35967, 48266, 50254, 44761, 39875, 36824, 34663, 35529, 38867, 40960, 38162, 28184, 14941, 6797, 7077, 14645, 29272]], "framecount": 17.0, "time": 1489540133226}
{"dataframe": [[31703, 32019, 32781, 34100, 34900, 34482, 33589, 32996, 32599, 32195, 31978, 32006, 32130, 32550, 32952, 32263, 31364, 32440, 34432, 34591, 33452, 32873, 32533, 32052, 32079, 32279, 32249, 32818, 33808, 33686, 32592, 32271, 32803, 32635, 31787, 31880, 33038, 33741, 33410, 32785, 32438, 32315, 32506, 33284, 33990, 33860, 33407, 32813, 31777, 31156, 31340, 31629, 32133, 32714, 32776, 33414, 35047, 35210, 33206, 32004, 32678, 33149, 32920, 32873, 32307, 31083, 30687, 31159, 31825, 33101, 34286, 34100, 33466, 33661, 34084, 33809, 32955, 32295, 32415, 32778, 32347, 31460, 31148, 31269, 31547, 32448, 33647, 34322, 34589, 34478, 33537, 32387, 32097, 32462, 32803, 32966, 32658, 31727, 31114, 31702], [11969, 2624, 8004, 18823, 24351, 26556, 28620, 27404, 24261, 26934, 39271, 55999, 65535, 65505, 55602, 42179, 25106, 7363, 1108, 11035, 24228, 29524, 29690, 28424, 25270, 23683, 29506, 43087, 57895, 65535, 63755, 52661, 35531, 17241, 6162, 8286, 18065, 24483, 26199, 28041, 28654, 25758, 24594, 31892, 46863, 60206, 64003, 60334, 52044, 35773, 15056, 4062, 8741, 18978, 24582, 25779, 25612, 24681, 24501, 28397, 39225, 54791, 65535, 64923, 55812, 43133, 26804, 10409, 4059, 11040, 21760, 27521, 29114, 28106, 24112, 21881, 28241, 42728, 57299, 64486, 63633, 56934, 43284, 23156, 6180, 3649, 13059, 21357, 23923, 25851, 27772, 27013, 27123, 34201, 48106, 61602, 65535, 62582, 50245, 31696], [45841, 49744, 46067, 39461, 35874, 35306, 35330, 36393, 37938, 35852, 27915, 18321, 13557, 15303, 21135, 29588, 39679, 47462, 48148, 42607, 37176, 35266, 35088, 35540, 36934, 37502, 34250, 26398, 17603, 13556, 16079, 22725, 31598, 41597, 48481, 47373, 40808, 36505, 36285, 36406, 36037, 36344, 35674, 31293, 23506, 16456, 14380, 17847, 25089, 34757, 44608, 49263, 45451, 38813, 36304, 36133, 35148, 35574, 37286, 35685, 29106, 20699, 15160, 15383, 20418, 27970, 37273, 45801, 48027, 43259, 38102, 36535, 36207, 35806, 36423, 36808, 33949, 27112, 19579, 15583, 15775, 19450, 27972, 40003, 48583, 48675, 43340, 38664, 36429, 35454, 35664, 36571, 35776, 31206, 23350, 16137, 14129, 17966, 25410, 34951], [28274, 27617, 29296, 31724, 32694, 32410, 32169, 31884, 31471, 32095, 34540, 37586, 38841, 37534, 35110, 32512, 29599, 27588, 28297, 30720, 32164, 32281, 32347, 32278, 31683, 31503, 32721, 35300, 38047, 38943, 37305, 34641, 31857, 28633, 26544, 28011, 31537, 33254, 32640, 31939, 31907, 31914, 32196, 33667, 36177, 38104, 38092, 36314, 33651, 30618, 27863, 27215, 29578, 32247, 32689, 32449, 32866, 32462, 31369, 31847, 34149, 36602, 37984, 37684, 35702, 32894, 30113, 28197, 28406, 30452, 31898, 31828, 31782, 32256, 32327, 32194, 32991, 34898, 36806, 37679, 37410, 35876, 32767, 29168, 27363, 28273, 30404, 31902, 32404, 32268, 31867, 31939, 32740, 34001, 35935, 37842, 37951, 36170, 33619, 30604], [31219, 29619, 29779, 31012, 31931, 32290, 32670, 33150, 33282, 32975, 33054, 34264, 35559, 35472, 34569, 33680, 32112, 30078, 29314, 30090, 31136, 32124, 33134, 33429, 32952, 32735, 33212, 34124, 35128, 35472, 34785, 33810, 32968, 31781, 30434, 30059, 31011, 32082, 32199, 31937, 32041, 32038, 31902, 32771, 34651, 35943, 35917, 35317, 34469, 32801, 30515, 29269, 30100, 31724, 32557, 32879, 33185, 32951, 32327, 32099, 32428, 33511, 35284, 36322, 35567, 33801, 31911, 30165, 29498, 30491, 31782, 32144, 32244, 32665, 32867, 32688, 32774, 33732, 35352, 36397, 35838, 34134, 32329, 30759, 29733, 29972, 31322, 32595, 32908, 32311, 31934, 32666, 33298, 32929, 33154, 34529, 35381, 35201, 34381, 32700], [38909, 39384, 36855, 33897, 32597, 32131, 31936, 32797, 33940, 33359, 30704, 27655, 26244, 27420, 30545, 34146, 37300, 39349, 38824, 35638, 32709, 31945, 31985, 31951, 32648, 33642, 33130, 30585, 27734, 26738, 28218, 31342, 34930, 37944, 39064, 37272, 34157, 32630, 32591, 32296, 32258, 33176, 33611, 32281, 29630, 27289, 26999, 28978, 32040, 35364, 38347, 39292, 37089, 33854, 32375, 32265, 32178, 32543, 33425, 33305, 31205, 28263, 26864, 28013, 30418, 33091, 36362, 39158, 38905, 35646, 32654, 31860, 32124, 32389, 33026, 33792, 33187, 30696, 28147, 27374, 28171, 30104, 33466, 37255, 39114, 37924, 35207, 33413, 32864, 32253, 31875, 32778, 33624, 32277, 29333, 27241, 27230, 28998, 31961, 35468], [48722, 41113, 31254, 28390, 30784, 31320, 31064, 33217, 34152, 29871, 22881, 19707, 23443, 30557, 36782, 42035, 46666, 46433, 38301, 29617, 28642, 31249, 31656, 32563, 34648, 33116, 26827, 20453, 19644, 25261, 32678, 38790, 44660, 48666, 44875, 34143, 27282, 28974, 31895, 32134, 33093, 34328, 31580, 24896, 19831, 21418, 28117, 34827, 40327, 45800, 47903, 41558, 31060, 26928, 29684, 32012, 33084, 34889, 34571, 29820, 22913, 18975, 21932, 29663, 36998, 42721, 47275, 46546, 37842, 29042, 28264, 31142, 31873, 32837, 34740, 33433, 27624, 21167, 19997, 25492, 32344, 37472, 43152, 47908, 44945, 34637, 27795, 29344, 32331, 33115, 34450, 34731, 30562, 23812, 19222, 20529, 27190, 34682, 40896, 46773], [47255, 58268, 55861, 46206, 38555, 34323, 32122, 32982, 35997, 36757, 31385, 20585, 10161, 6449, 12011, 24916, 40180, 52191, 55844, 49963, 41474, 37968, 37964, 36921, 35541, 35212, 32799, 25145, 15016, 8597, 8974, 15477, 26730, 40835, 52814, 55901, 49929, 42782, 38700, 35433, 33624, 35582, 37783, 34432, 24895, 14259, 8467, 9790, 17237, 29282, 43059, 52113, 50981, 43528, 38928, 39076, 39758, 40448, 41989, 40207, 30866, 17145, 6907, 4689, 9772, 20116, 34149, 48239, 55444, 51989, 43906, 39455, 38641, 38221, 38802, 40093, 37324, 27262, 13794, 4678, 4288, 11770, 24575, 40270, 53950, 58333, 52092, 43087, 37513, 34563, 33904, 36356, 38216, 34260, 24250, 13373, 7709, 9626, 17767, 30256]], "framecount": 18.0, "time": 1489540133319}
{"dataframe": [[32936, 33752, 33707, 33010, 32438, 32472, 32717, 33046, 33632, 33991, 33830, 33262, 32087, 30927, 31078, 32188, 32715, 32323, 32194, 33203, 34343, 34191, 33243, 32686, 32565, 32671, 32884, 32782, 32629, 33126, 33471, 32284, 30607, 30674, 32164, 33354, 34184, 34751, 33937, 31951, 31110, 32640, 34720, 35038, 33778, 32078, 30213, 29359, 30767, 32960, 34115, 34599, 34602, 33549, 32247, 31906, 32286, 32764, 33202, 33333, 33170, 33135, 32831, 31799, 31198, 32112, 33434, 33532, 32654, 32121, 32247, 32620, 33126, 33627, 33894, 33587, 32612, 32303, 33388, 33670, 32076, 31002, 31319, 31594, 32330, 33977, 34442, 33535, 33280, 32891, 31200, 30723, 32834, 34788, 34847, 34165, 33267, 31822, 30749, 30959], [10880, 0, 5274, 22414, 32940, 32604, 28892, 24870, 20744, 21328, 31693, 49928, 65535, 65535, 63238, 45051, 24846, 9841, 5513, 11200, 19526, 25031, 27870, 27899, 24685, 22398, 27398, 41509, 58413, 65535, 65535, 56313, 39639, 20172, 5325, 3582, 13122, 22460, 27135, 30607, 30866, 25346, 21071, 26915, 43445, 62170, 65535, 65535, 53228, 33571, 12640, 0, 3654, 17984, 27751, 30055, 30380, 28183, 23420, 23434, 33449, 49726, 63253, 65535, 61406, 48501, 29194, 9106, 1375, 10211, 22571, 27611, 28696, 29076, 25958, 21848, 25004, 38278, 54978, 65535, 65535, 58519, 44102, 24866, 7416, 2029, 10813, 22193, 26807, 28168, 29892, 28382, 23735, 25553, 40961, 60816, 65535, 64346, 53809, 38388], [44412, 48826, 45229, 38273, 34857, 35195, 35902, 36801, 38199, 37262, 31282, 21833, 14449, 13547, 18450, 26303, 35935, 45261, 49121, 45423, 39327, 35995, 34996, 35131, 36759, 38118, 35805, 28589, 19206, 12977, 13259, 19164, 28627, 40119, 49524, 50703, 43826, 37024, 35161, 35459, 35606, 36016, 35760, 32795, 26033, 17470, 12736, 15553, 23677, 33563, 43545, 49751, 47707, 40619, 35932, 34684, 34278, 35237, 37315, 36869, 31416, 22711, 15751, 14504, 18592, 25801, 35090, 44511, 49351, 46559, 39593, 34635, 33654, 34738, 36532, 38485, 37605, 30023, 18764, 12862, 15058, 20389, 27307, 37688, 47563, 49630, 44137, 38325, 35876, 35039, 35112, 36681, 37755, 34583, 25837, 16015, 12277, 16075, 23210, 31813], [28085, 28005, 30127, 31905, 32329, 32492, 32618, 32036, 31335, 31825, 33841, 36407, 37878, 37481, 35939, 33876, 31132, 28417, 27685, 29474, 31661, 32564, 32778, 32656, 31779, 31005, 31664, 33940, 37065, 39283, 38846, 36170, 32880, 29437, 26645, 26866, 30080, 32599, 32616, 32059, 32144, 32319, 32539, 33342, 35186, 37697, 38834, 37080, 33874, 31121, 28747, 27318, 28515, 31209, 32585, 32684, 32707, 32212, 31454, 32000, 34097, 36502, 37879, 37523, 35882, 33801, 31321, 28655, 27444, 28867, 31409, 32728, 32647, 32382, 32180, 31560, 31516, 34035, 38022, 39424, 37389, 34938, 33005, 30190, 27519, 27576, 29898, 31762, 32406, 32680, 32439, 31651, 31615, 33188, 35804, 38078, 38571, 37073, 34616, 31728], [31031, 30687, 30917, 30842, 31369, 32616, 33244, 33002, 32594, 32367, 32854, 34139, 34964, 34803, 34615, 34304, 32763, 30597, 29700, 30516, 31831, 32773, 33299, 33189, 32390, 31658, 31687, 32658, 34338, 35775, 36063, 35318, 33891, 31838, 29886, 29459, 30849, 32411, 32741, 32383, 32199, 32044, 31870, 32272, 33639, 35431, 36374, 35808, 34486, 33215, 31766, 30241, 29809, 30671, 31470, 31732, 32157, 32659, 32687, 32612, 33321, 34840, 35910, 35638, 34766, 34049, 32915, 30971, 29489, 29887, 31275, 31823, 31807, 32287, 32755, 32560, 32353, 33192, 35194, 36767, 36236, 34499, 33387, 32298, 30277, 29116, 30281, 32100, 32796, 32556, 31916, 31407, 31831, 33062, 34258, 35203, 35927, 36060, 35156, 33113], [38622, 39714, 37233, 33126, 31211, 31638, 32255, 33050, 34246, 34301, 32331, 29081, 26210, 25923, 28957, 33336, 36893, 38904, 38728, 36299, 33560, 32288, 32062, 32152, 32789, 33663, 33356, 31045, 27954, 26387, 27463, 30385, 33855, 37287, 39605, 38870, 35570, 32919, 32064, 31630, 31625, 32780, 33850, 33032, 30402, 27682, 26641, 27921, 31025, 35044, 38771, 40138, 37856, 34079, 31971, 31544, 31589, 32379, 33591, 33679, 32084, 29548, 27415, 27133, 29000, 32187, 35980, 39115, 39440, 36747, 33582, 31768, 31078, 31278, 32531, 34074, 34185, 31926, 28768, 27144, 27596, 29475, 32789, 36893, 39506, 38753, 35541, 32906, 32167, 31877, 31548, 32488, 34220, 33997, 30778, 27240, 26436, 28298, 31128, 34321], [49153, 42658, 31353, 26048, 27984, 30382, 32417, 35720, 36444, 31436, 23695, 19215, 21360, 27937, 35016, 41583, 47209, 47695, 39903, 30503, 28174, 30254, 31081, 32461, 34975, 34209, 28592, 21510, 18739, 23195, 31022, 37878, 44170, 49028, 46594, 35891, 27259, 27835, 31204, 31937, 33224, 35200, 33399, 27189, 20816, 19536, 24488, 31737, 38596, 45400, 49301, 44678, 33989, 27906, 29287, 31291, 32093, 34193, 34912, 30681, 23423, 18727, 20898, 28489, 36226, 41734, 45970, 46832, 40353, 30959, 28065, 30975, 32677, 33079, 34298, 33711, 28882, 21881, 18545, 22605, 30500, 37166, 42646, 47368, 46504, 37476, 28856, 28942, 32620, 33301, 33518, 34529, 32315, 25763, 19084, 18162, 24395, 32658, 39152, 45378], [44661, 54703, 53771, 44795, 37526, 35085, 34483, 35643, 38805, 39933, 34631, 23142, 11497, 6819, 10574, 19754, 32795, 47566, 56124, 52420, 42851, 37149, 35313, 34224, 35477, 38840, 38798, 31317, 19167, 9710, 7928, 13082, 22956, 36900, 50935, 56212, 49934, 40644, 35673, 33866, 33998, 37306, 40991, 38826, 28609, 15694, 7890, 8147, 14889, 26669, 41493, 52880, 53618, 45684, 38482, 35907, 35186, 35909, 39087, 41111, 36515, 25081, 13072, 7061, 8877, 17282, 30592, 45131, 53658, 51252, 42964, 37620, 36376, 36450, 38435, 41682, 41033, 32854, 19985, 9306, 5616, 9370, 19324, 33816, 48222, 54808, 50838, 43567, 39963, 38639, 37563, 38347, 39783, 36758, 26853, 14268, 6241, 6222, 12877, 24672]], "framecount": 19.0, "time": 1489540133429}
{"dataframe": [[31960, 33032, 33323, 32380, 31947, 33068, 33416, 32351, 32739, 34805, 35797, 35011, 33225, 31009, 29759, 30096, 30740, 31370, 32820, 34264, 34401, 33934, 33827, 33764, 33539, 33224, 32628, 32100, 32053, 31983, 31741, 32112, 32917, 32798, 31859, 31952, 33434, 34534, 34211, 33032, 32007, 32055, 33112, 33879, 33479, 32371, 31773, 32252, 32651, 31961, 31308, 32011, 33448, 34227, 34035, 33430, 32786, 32364, 32366, 32660, 33246, 33773, 33236, 32055, 31667, 31649, 31261, 31645, 33170, 34365, 34492, 33818, 32693, 31967, 32222, 32968, 33607, 33690, 33019, 32191, 31582, 31081, 31320, 32768, 34289, 34302, 32751, 31552, 32326, 33790, 33773, 32779, 32440, 32768, 33221, 33578, 33428, 32861, 32177, 30984], [17497, 1721, 3079, 16651, 26778, 29242, 29942, 28834, 24186, 21994, 29196, 45644, 63201, 65535, 64027, 50095, 32999, 13625, 1133, 5366, 18685, 26660, 28317, 28376, 26076, 23117, 25889, 37307, 54377, 65535, 65535, 57559, 41472, 23758, 7641, 2973, 11864, 22287, 26550, 28253, 28860, 26524, 24523, 28607, 41048, 57739, 65535, 64966, 51262, 35924, 22747, 11397, 6112, 11503, 21255, 26342, 27267, 26842, 25105, 25632, 33736, 48477, 62031, 65535, 62093, 50431, 33758, 14967, 2410, 4123, 16082, 25966, 28998, 29164, 28664, 26701, 26036, 33484, 49952, 64793, 65535, 60693, 46643, 26550, 6330, 0, 10369, 24934, 30292, 29351, 27419, 24699, 23978, 28980, 39308, 52389, 63800, 65535, 58985, 41585], [42137, 49765, 48775, 41529, 35951, 34500, 34737, 35854, 37290, 36820, 32424, 23743, 14779, 12276, 17443, 25748, 35133, 45148, 50493, 46813, 39432, 35592, 34694, 34379, 35669, 37418, 35733, 29320, 20672, 14506, 14651, 20343, 28390, 37678, 46404, 49178, 44410, 38376, 35662, 34671, 34631, 36206, 36956, 33876, 27151, 19583, 14897, 15853, 22428, 31564, 39827, 45423, 46606, 42902, 37940, 35413, 35280, 36547, 38114, 37309, 31977, 23417, 16242, 14393, 17580, 23785, 32647, 42800, 48974, 47076, 40659, 36365, 35444, 35706, 36485, 37051, 35424, 30168, 21978, 15023, 14040, 18988, 26784, 36191, 45633, 49937, 46261, 39467, 35153, 33488, 33653, 35665, 37191, 35192, 29339, 21921, 16010, 14292, 18815, 28950], [28624, 26830, 27832, 30598, 32817, 33466, 32764, 31652, 31377, 32203, 33908, 36537, 38656, 38235, 35955, 33568, 30801, 27704, 26741, 28976, 31757, 32936, 33155, 32881, 31936, 31347, 32231, 34431, 37035, 38611, 37971, 35573, 32673, 29684, 27328, 27403, 29843, 31992, 32666, 32955, 33026, 32424, 31994, 32782, 34702, 36790, 37918, 37407, 35055, 31479, 28484, 27799, 29308, 31298, 32557, 33100, 32759, 31440, 30500, 31308, 33600, 36330, 38221, 38215, 36599, 34263, 31383, 28486, 27390, 28942, 31277, 32452, 32651, 32407, 31775, 31562, 32530, 34413, 36625, 38165, 37759, 35541, 32934, 30595, 28537, 27662, 28781, 31007, 32935, 33928, 33618, 32247, 31252, 31938, 34108, 36412, 37670, 37524, 35900, 32913], [30759, 29580, 29901, 30619, 31334, 32479, 33305, 32834, 32071, 32434, 33648, 34744, 35205, 35068, 34795, 34344, 32924, 30673, 29303, 29963, 31670, 32844, 33105, 32852, 32387, 31899, 31736, 32434, 34096, 35760, 36232, 35487, 34192, 32452, 30621, 29927, 30594, 31467, 32063, 32564, 32634, 32106, 31543, 31722, 33123, 35122, 36371, 36498, 35782, 33837, 30776, 28621, 29201, 31401, 32850, 33004, 32572, 32000, 31732, 32014, 32763, 34154, 35800, 36438, 35666, 34169, 32395, 30621, 29589, 29954, 31238, 32209, 32548, 32774, 32780, 32357, 32222, 33004, 34398, 35726, 36167, 35160, 33482, 32233, 30987, 29591, 29614, 31320, 32757, 32986, 32706, 32373, 32081, 32268, 33451, 35217, 36092, 35510, 34632, 33742], [37731, 39813, 38532, 34727, 31897, 31405, 31649, 31994, 33069, 34120, 33334, 30222, 26891, 26356, 29010, 32553, 35593, 38145, 38969, 36805, 33697, 32413, 32341, 32097, 32467, 33626, 33701, 31588, 28458, 26503, 27043, 29740, 33448, 37077, 39405, 39047, 36020, 32872, 31757, 31813, 31942, 32680, 33626, 33166, 30952, 28204, 26727, 27968, 31491, 35046, 37051, 37662, 37080, 35309, 33495, 32648, 32363, 32471, 33199, 33532, 32172, 29523, 27314, 26953, 28650, 31672, 35167, 38268, 39440, 37657, 34483, 32362, 31691, 31800, 32489, 33316, 33361, 31823, 29048, 27097, 27507, 29656, 32705, 36361, 39206, 39049, 35914, 32892, 32029, 31966, 31811, 32584, 33699, 33317, 31464, 29327, 27599, 27327, 29693, 33734], [50280, 47291, 36083, 27428, 27249, 29312, 30097, 32526, 34870, 32456, 25930, 20547, 21073, 27304, 34817, 41034, 46322, 48038, 41505, 30853, 26757, 29769, 32048, 32734, 34656, 34868, 29821, 22016, 18067, 21810, 30093, 37678, 43500, 47965, 47082, 37977, 28662, 27945, 31107, 31512, 32152, 34444, 33492, 27568, 21134, 19935, 25003, 32417, 39376, 45290, 47707, 43043, 33320, 27261, 28599, 31344, 32440, 34856, 36896, 33646, 25912, 19519, 19467, 25557, 33155, 39420, 45017, 47798, 42706, 32695, 28082, 30363, 32275, 32558, 34030, 34480, 30457, 23378, 19154, 21989, 28954, 35358, 41324, 47199, 48012, 39946, 29808, 27252, 30107, 31436, 32317, 34491, 34043, 28949, 22829, 20948, 24696, 30601, 36258, 42377], [40308, 53870, 56937, 49735, 41654, 37806, 36037, 35767, 37892, 39067, 33970, 22179, 10228, 5278, 8584, 17861, 31694, 47167, 56853, 55020, 46005, 38646, 34989, 33040, 33786, 37192, 38511, 33328, 22879, 13291, 9600, 12214, 20111, 33017, 47302, 54256, 49564, 40737, 36354, 35606, 35900, 38402, 41728, 40416, 30736, 15920, 5675, 6622, 15189, 25644, 38396, 51673, 55981, 48499, 39482, 35808, 34477, 34341, 37402, 40566, 37702, 27481, 15180, 7810, 8395, 15716, 27871, 42454, 53250, 53488, 45624, 38970, 36380, 34918, 35404, 38942, 40625, 34884, 22831, 11536, 7257, 10747, 19696, 32680, 46880, 54675, 50916, 41963, 36989, 35754, 35146, 36816, 40358, 39932, 31737, 19160, 9506, 7268, 12037, 22211]], "framecount": 20.0, "time": 1489540133523}
