{"dataframe": [[32768, 32768, 32768, 32768, 32768, 32768, 32768, 32768, 32768, 32768, 32768, 32768, 32768, 32768, 32768, 32768, 32768, 32768, 32768, 32768, 32768, 32768, 32768, 32768, 32768, 32768, 32768, 32768, 32768, 32768, 32768, 32768, 32768, 32768, 32768, 32768, 32768, 32768, 32768, 32768, 32768, 32768, 32768, 32768, 32768, 32768, 33921, 33895, 34261, 34918, 34389, 32879, 32245, 32941, 33722, 33959, 33793, 32938, 31301, 29849, 29684, 30717, 31860, 32670, 33722, 34776, 34695, 33625, 32882, 33164, 34223, 35304, 35726, 34854, 31662, 27357, 26231, 29011, 31194, 31553, 33383, 36728, 38161, 36830, 34663, 32734, 31334, 31079, 31709, 32509, 33302, 33323, 31999, 30317, 29423, 29937, 31997, 34411, 35609, 35388], [32768, 32768, 32768, 32768, 32768, 32768, 32768, 32768, 32768, 32768, 32768, 32768, 32768, 32768, 32768, 32768, 32768, 32768, 32768, 32768, 32768, 32768, 32768, 32768, 32768, 32768, 32768, 32768, 32768, 32768, 32768, 32768, 32768, 32768, 32768, 32768, 32768, 32768, 32768, 32768, 32768, 32768, 32768, 32768, 32768, 32768, 29354, 26086, 25189, 26726, 29811, 33652, 35910, 34860, 32474, 31152, 31093, 32876, 36778, 39978, 39772, 37060, 33482, 29167, 25409, 25227, 28811, 32400, 33578, 33357, 32886, 32206, 31252, 31041, 33829, 38455, 39868, 38489, 38647, 36903, 29197, 22564, 23384, 27287, 29991, 32630, 34697, 34545, 33477, 32944, 33460, 35755, 38428, 39017, 37603, 34968, 30868, 26523, 24863, 27064], [32768, 32768, 32768, 32768, 32768, 32768, 32768, 32768, 32768, 32768, 32768, 32768, 32768, 32768, 32768, 32768, 32768, 32768, 32768, 32768, 32768, 32768, 32768, 32768, 32768, 32768, 32768, 32768, 32768, 32768, 32768, 32768, 32768, 32768, 32768, 32768, 32768, 32768, 32768, 32768, 32768, 32768, 32768, 32768, 32768, 32768, 33104, 36363, 37319, 35578, 34141, 33946, 33477, 32849, 33307, 34193, 33615, 31005, 28195, 27586, 28941, 30317, 31887, 34969, 38009, 37887, 35006, 32928, 32934, 33216, 32945, 32993, 33500, 33261, 31507, 29441, 28614, 28633, 29089, 31378, 35304, 37554, 36787, 35492, 35009, 34272, 33422, 33361, 33299, 32360, 30944, 29427, 28199, 28106, 29427, 31683, 34439, 37019, 37877, 36235], [32768, 32768, 32768, 32768, 32768, 32768, 32768, 32768, 32768, 32768, 32768, 32768, 32768, 32768, 32768, 32768, 32768, 32768, 32768, 32768, 32768, 32768, 32768, 32768, 32768, 32768, 32768, 32768, 32768, 32768, 32768, 32768, 32768, 32768, 32768, 32768, 32768, 32768, 32768, 32768, 32768, 32768, 32768, 32768, 32768, 32768, 32334, 31298, 31321, 32266, 32909, 32790, 32493, 32445, 32487, 32438, 32604, 33353, 34226, 34434, 34038, 33430, 32522, 31477, 31035, 31519, 32328, 32685, 32692, 32953, 33215, 32799, 32267, 32690, 33618, 33913, 33782, 33804, 33461, 32349, 31278, 31219, 31984, 32563, 32657, 32759, 32861, 32647, 32475, 32769, 33285, 33692, 33965, 33970, 33524, 32813, 32114, 31524, 31343, 31842], [32768, 32768, 32768, 32768, 32768, 32768, 32768, 32768, 32768, 32768, 32768, 32768, 32768, 32768, 32768, 32768, 32768, 32768, 32768, 32768, 32768, 32768, 32768, 32768, 32768, 32768, 32768, 32768, 32768, 32768, 32768, 32768, 32768, 32768, 32768, 32768, 32768, 32768, 32768, 32768, 32768, 32768, 32768, 32768, 32768, 32768, 30648, 27909, 27074, 29523, 32483, 32840, 32225, 32638, 32558, 31546, 31964, 34563, 37371, 38408, 37265, 35008, 32570, 29705, 27185, 27511, 30584, 32807, 32834, 32703, 32839, 32144, 31568, 32802, 35454, 37673, 38111, 36584, 33863, 31056, 28738, 27581, 28748, 31457, 33125, 33209, 32906, 32307, 31500, 31730, 33521, 35936, 37633, 37644, 35982, 33495, 30856, 28599, 27898, 29442], [32768, 32768, 32768, 32768, 32768, 32768, 32768, 32768, 32768, 32768, 32768, 32768, 32768, 32768, 32768, 32768, 32768, 32768, 32768, 32768, 32768, 32768, 32768, 32768, 32768, 32768, 32768, 32768, 32768, 32768, 32768, 32768, 32768, 32768, 32768, 32768, 32768, 32768, 32768, 32768, 32768, 32768, 32768, 32768, 32768, 32768, 33337, 33828, 34000, 33632, 33068, 32644, 32306, 32212, 32559, 32981, 33040, 32649, 31988, 31600, 31876, 32454, 32963, 33573, 34156, 34057, 33211, 32423, 32256, 32507, 32736, 32769, 32825, 32999, 32776, 32088, 31799, 31903, 31753, 32226, 33842, 34808, 34187, 33274, 32824, 32498, 32282, 32333, 32548, 32768, 32761, 32429, 32065, 31922, 32006, 32452, 33280, 33979, 34060, 33611], [32768, 32768, 32768, 32768, 32768, 32768, 32768, 32768, 32768, 32768, 32768, 32768, 32768, 32768, 32768, 32768, 32768, 32768, 32768, 32768, 32768, 32768, 32768, 32768, 32768, 32768, 32768, 32768, 32768, 32768, 32768, 32768, 32768, 32768, 32768, 32768, 32768, 32768, 32768, 32768, 32768, 32768, 32768, 32768, 32768, 32768, 44131, 44068, 37052, 28756, 27260, 30447, 32208, 33283, 35261, 35030, 30395, 24037, 21456, 25050, 31295, 36666, 41554, 45438, 43822, 35465, 28249, 28380, 31031, 31586, 32597, 34407, 33504, 28977, 23648, 22484, 27549, 34079, 37806, 41037, 44363, 41939, 33568, 28649, 30304, 31893, 31670, 32898, 33850, 31146, 26006, 22724, 24484, 29935, 35327, 39728, 43756, 44644, 38885, 30517], [32768, 32768, 32768, 32768, 32768, 32768, 32768, 32768, 32768, 32768, 32768, 32768, 32768, 32768, 32768, 32768, 32768, 32768, 32768, 32768, 32768, 32768, 32768, 32768, 32768, 32768, 32768, 32768, 32768, 32768, 32768, 32768, 32768, 32768, 32768, 32768, 32768, 32768, 32768, 32768, 32768, 32768, 32768, 32768, 32768, 32768, 24894, 32188, 35214, 34857, 34610, 36454, 39277, 40712, 40950, 41112, 39722, 35547, 30171, 25114, 20987, 19748, 22781, 27519, 30796, 32747, 34505, 37395, 42638, 46950, 45177, 38726, 33533, 31449, 29573, 26111, 23072, 23026, 25415, 28196, 31092, 33724, 34076, 33035, 34915, 40090, 43821, 43385, 40205, 36381, 32678, 28438, 23386, 19379, 18880, 22838, 30313, 38336, 42936, 42574]], "framecount": 0.0, "time": 1489540230955}
{"dataframe": [[34522, 33687, 33154, 33065, 33541, 34085, 33723, 32299, 30639, 29498, 29148, 29778, 31498, 33675, 35252, 35836, 35422, 34138, 32917, 32673, 32899, 32713, 32387, 32503, 32784, 32453, 31279, 30313, 30771, 32393, 34095, 34717, 33404, 31771, 32412, 33901, 33605, 33275, 34705, 35584, 34366, 32330, 30300, 28768, 28680, 29792, 31409, 33672, 35708, 35858, 34729, 34010, 33469, 32958, 33863, 35618, 35376, 32325, 28954, 28072, 29169, 29162, 28349, 30548, 35483, 38500, 38168, 36818, 35488, 34026, 32952, 32234, 31306, 30369, 29788, 29476, 29506, 30417, 32234, 33842, 34914, 36126, 36267, 34220, 32528, 32911, 33138, 32461, 32718, 33261, 32252, 30834, 30672, 31174, 31709, 32472, 33034, 33305, 33821, 33929], [30778, 32967, 33413, 33507, 33239, 32108, 31492, 33324, 36865, 39357, 39556, 37594, 33258, 28171, 25904, 27145, 29318, 30959, 32235, 33004, 33066, 32695, 32517, 33504, 35434, 36743, 37482, 38163, 36623, 31743, 26969, 26018, 28631, 31757, 32981, 32808, 32732, 32256, 30826, 30119, 31865, 35649, 39275, 40491, 38935, 35767, 31639, 27225, 25046, 26976, 30669, 32786, 33554, 33711, 31726, 28511, 28938, 34693, 40351, 40395, 37376, 37440, 38938, 34454, 25047, 21188, 26014, 30504, 29978, 30185, 33383, 34802, 33814, 34577, 37441, 39128, 38596, 37150, 35258, 32289, 27815, 23611, 24076, 29856, 34691, 34794, 33423, 32824, 31933, 31495, 33234, 36326, 38192, 37296, 34975, 33758, 33502, 31782, 28702, 27639], [33948, 33173, 33397, 33198, 32707, 32609, 32538, 31494, 29667, 28614, 29040, 30448, 32641, 35090, 36354, 35927, 35047, 34792, 34449, 32908, 31442, 32354, 34322, 33592, 30423, 28565, 28632, 28762, 29905, 33459, 37020, 37797, 36357, 34497, 33010, 32299, 32623, 33422, 33853, 33639, 32527, 30332, 28145, 27662, 29157, 31549, 34088, 36484, 37667, 36602, 34351, 32831, 32289, 32287, 33129, 34429, 34526, 32378, 29040, 27067, 27947, 30156, 31686, 33553, 36850, 38526, 36230, 33673, 34131, 34489, 32360, 31100, 32496, 33119, 31106, 29052, 28860, 29560, 30547, 32605, 35467, 37376, 37030, 34775, 32544, 32206, 33354, 34092, 33775, 33157, 32244, 30367, 28508, 28521, 30030, 31497, 33174, 35433, 36539, 35466], [32531, 32700, 32527, 32723, 33287, 33357, 32785, 32771, 33671, 34133, 33569, 32846, 32360, 31919, 31768, 32081, 32398, 32373, 32464, 33158, 33680, 32898, 31660, 31930, 33503, 34354, 33989, 33595, 33433, 32688, 31495, 31056, 31736, 32557, 32861, 32959, 33039, 32851, 32354, 32033, 32552, 33730, 34489, 34368, 33796, 33000, 32021, 31237, 31099, 31713, 32575, 32959, 32937, 33064, 33086, 32527, 32086, 32695, 33874, 34500, 34274, 33495, 32508, 31716, 31369, 31538, 32158, 32627, 32492, 32544, 33331, 33578, 32577, 32060, 33048, 33933, 33775, 33669, 33755, 32948, 31678, 31249, 31547, 31933, 32420, 32872, 33012, 33036, 33010, 32721, 32615, 33304, 34144, 34102, 33442, 32877, 32233, 31451, 31391, 32200], [31716, 32780, 32850, 32764, 32231, 31493, 31938, 34030, 36552, 38006, 37671, 35738, 32994, 30057, 27723, 27638, 29975, 32202, 32929, 33188, 32970, 31706, 30914, 32182, 34938, 37489, 38338, 37262, 35262, 32684, 29427, 27151, 27747, 30121, 31939, 32816, 33130, 32699, 32008, 32036, 33172, 35358, 37667, 38384, 36974, 34338, 31056, 27925, 27004, 28988, 31475, 32482, 32758, 33084, 32907, 32192, 31980, 33272, 35922, 38216, 38224, 35678, 32095, 29303, 28135, 28612, 30367, 32300, 33262, 33239, 32710, 31762, 30918, 31500, 34063, 37165, 38669, 37918, 35670, 32606, 29371, 27386, 27871, 30004, 31803, 32760, 33384, 33240, 32155, 31492, 32477, 34902, 37398, 38341, 37284, 34977, 31815, 28262, 26522, 28304], [33043, 32661, 32476, 32354, 32355, 32650, 32988, 32828, 32201, 31745, 31830, 32387, 33207, 33771, 33694, 33371, 33172, 32955, 32739, 32587, 32452, 32637, 33000, 32680, 31983, 32006, 32228, 31947, 32258, 33584, 34485, 34207, 33308, 32377, 31961, 32267, 32695, 32869, 33069, 33265, 33032, 32372, 31797, 31724, 32053, 32440, 32906, 33649, 34172, 33761, 32840, 32325, 32269, 32551, 33327, 33936, 33366, 31970, 31150, 31545, 32261, 32209, 31902, 32707, 34271, 34686, 33717, 33178, 33458, 33217, 32417, 32064, 32115, 32085, 31970, 31812, 31763, 32185, 32946, 33513, 33919, 34348, 34169, 33052, 32094, 32170, 32588, 32585, 32480, 32623, 32687, 32403, 32096, 32211, 32632, 32885, 32897, 33048, 33444, 33633], [27757, 30297, 31939, 32249, 33370, 33419, 30221, 25193, 22655, 25621, 31816, 37357, 41793, 44943, 42988, 34756, 27889, 28464, 31360, 31527, 32129, 34645, 34753, 29814, 23305, 21567, 26048, 32435, 38219, 43777, 46746, 42670, 33179, 27235, 28468, 30617, 30725, 32249, 34445, 32958, 27821, 23594, 24342, 29522, 35183, 39359, 42875, 44097, 39106, 30608, 27180, 29701, 31643, 32116, 34133, 35589, 32407, 25558, 21240, 24049, 30957, 36398, 40243, 44197, 44392, 37025, 28598, 27746, 31296, 32446, 32688, 34342, 34085, 29339, 23189, 21631, 26340, 32852, 37904, 42352, 45433, 42883, 34475, 27920, 28179, 30601, 31543, 33162, 34861, 32956, 27492, 22768, 23249, 28978, 35418, 39559, 42401, 43371, 38928, 31112], [39749, 37381, 35360, 33090, 31793, 31361, 30097, 28577, 28284, 28690, 29533, 31492, 33654, 35111, 36781, 37968, 36050, 31652, 28732, 29546, 33135, 36704, 37299, 34836, 32483, 31973, 31148, 28436, 26168, 26843, 30183, 34586, 37342, 36258, 33715, 33672, 35769, 37702, 38459, 36995, 33394, 29773, 27231, 25448, 25106, 27301, 31392, 35183, 36700, 35608, 33441, 32200, 32672, 34370, 36400, 37872, 38103, 36814, 34077, 30494, 27525, 26194, 25902, 26894, 30187, 33323, 33859, 34343, 35815, 35702, 35519, 37974, 39993, 38563, 35115, 30725, 25951, 23195, 23567, 26006, 30171, 35148, 37958, 37431, 35912, 35230, 35183, 35797, 36845, 36684, 34258, 30490, 27227, 25785, 26167, 27587, 29695, 32667, 35803, 37236]], "framecount": 1.0, "time": 1489540231174}
{"dataframe": [[33193, 32920, 33448, 33713, 34022, 35024, 35389, 33631, 30439, 27795, 27153, 28606, 31121, 33807, 36190, 37269, 36269, 34106, 32589, 32487, 33043, 33421, 33652, 33454, 31984, 29900, 29189, 30147, 31307, 32184, 33356, 34400, 34409, 34108, 34574, 34868, 34007, 33033, 32896, 33216, 33282, 32457, 30974, 29646, 28636, 28868, 31518, 34706, 35808, 35415, 34924, 34401, 33961, 33657, 33361, 33293, 32969, 31825, 30781, 30411, 29959, 29867, 31163, 32686, 33227, 33896, 35444, 36754, 36757, 35082, 32130, 29980, 30533, 32452, 32999, 32007, 31099, 30873, 31148, 32116, 33764, 34976, 34429, 32769, 32135, 32833, 33457, 34054, 35110, 35178, 33399, 31184, 29581, 28878, 29792, 31750, 32964, 33431, 34148, 34533], [29517, 31338, 31829, 32125, 31757, 30147, 29554, 32533, 38071, 42178, 42288, 39107, 34349, 29519, 26036, 24815, 26339, 29819, 32649, 33378, 33135, 32611, 31505, 31359, 34415, 39068, 40995, 39250, 36112, 32135, 27682, 26006, 28234, 30690, 31433, 31995, 32263, 31482, 30944, 31112, 32144, 35616, 39729, 40584, 39472, 38072, 33415, 26604, 23714, 25485, 28358, 31083, 33296, 34206, 33771, 32427, 31656, 33081, 36003, 38682, 40038, 38668, 34166, 28817, 25704, 26853, 30944, 32572, 30150, 29786, 33646, 35216, 32221, 30497, 32855, 36379, 38857, 39754, 38416, 34640, 29017, 24443, 25567, 31154, 33787, 32285, 32021, 32506, 30412, 29286, 32493, 36741, 39323, 40448, 39000, 34584, 30061, 28019, 28167, 29186], [34069, 33940, 34156, 33649, 33043, 33289, 33876, 32896, 29685, 26838, 27021, 29470, 32270, 34901, 36920, 37286, 35916, 34214, 33270, 32852, 32807, 33329, 33707, 32993, 31285, 29368, 28044, 28054, 29980, 33433, 36491, 37100, 35344, 33478, 33154, 33641, 33892, 34222, 34574, 33950, 32193, 30026, 28187, 27485, 28367, 30594, 33633, 36386, 37439, 36564, 34898, 33688, 33356, 33280, 32909, 32813, 33171, 32670, 30661, 28246, 26870, 27735, 31129, 35772, 39354, 38988, 34584, 31400, 32457, 33631, 32808, 33123, 34442, 33861, 31991, 30164, 28083, 27235, 29077, 31853, 34469, 37379, 38334, 35739, 33128, 33133, 33632, 33221, 33065, 33278, 32693, 30922, 28787, 27684, 28576, 31294, 34459, 36170, 35834, 34784], [32729, 32564, 32480, 32767, 33037, 33061, 32820, 32681, 33189, 33912, 33955, 33506, 33047, 32337, 31529, 31429, 32064, 32566, 32628, 32664, 32709, 32634, 32692, 32888, 33057, 33513, 34296, 34537, 33643, 32239, 31283, 31148, 31749, 32538, 32857, 32815, 32773, 32547, 32250, 32492, 33156, 33671, 34107, 34410, 33896, 32687, 31785, 31475, 31507, 31908, 32464, 32755, 32803, 32856, 33004, 33009, 32617, 32406, 33091, 34108, 34460, 34048, 33140, 31811, 30618, 30703, 32143, 33314, 33338, 33132, 33050, 32558, 32110, 32370, 32980, 33605, 34175, 34183, 33501, 32754, 32095, 31358, 31108, 31792, 32784, 33213, 32951, 32694, 32948, 33070, 32635, 32654, 33582, 34232, 33852, 32989, 32215, 31741, 31745, 32156], [31448, 32821, 32745, 32797, 32680, 32118, 32178, 33569, 35733, 37366, 37509, 36260, 33980, 30881, 28074, 27481, 29482, 31878, 32759, 32670, 32568, 32313, 31929, 32224, 33921, 36526, 38255, 37816, 35614, 32727, 29825, 27736, 27744, 29772, 31803, 32654, 32965, 33023, 32533, 32062, 32722, 34834, 37225, 38010, 36599, 34197, 31777, 29304, 27768, 28745, 31097, 32384, 32648, 32747, 32328, 31705, 31962, 33455, 35897, 37978, 37914, 35954, 33780, 31562, 28821, 27096, 28218, 30975, 32841, 33427, 33362, 32614, 31778, 32114, 33911, 36222, 37701, 37511, 35764, 33068, 30081, 27837, 27630, 29530, 31818, 33030, 33286, 33092, 32580, 32027, 32204, 33950, 36654, 38129, 37277, 35167, 32640, 29554, 27162, 27653], [33310, 32793, 32535, 32636, 32885, 33092, 33165, 32763, 31807, 31169, 31493, 32192, 32717, 33358, 34111, 34262, 33651, 33029, 32761, 32543, 32376, 32497, 32740, 32795, 32520, 32011, 31723, 31915, 32357, 33060, 33943, 34093, 33276, 32695, 32833, 32886, 32683, 32784, 33087, 33057, 32630, 32120, 31824, 31770, 31778, 32073, 32995, 34020, 34376, 34011, 33217, 32548, 32504, 32574, 32291, 32358, 32921, 33006, 32525, 32129, 31786, 31664, 32435, 33706, 34287, 33792, 32876, 32534, 32928, 32993, 32339, 32181, 32973, 33415, 32905, 32335, 32087, 31838, 31811, 32349, 33274, 34056, 33972, 33064, 32490, 32625, 32639, 32633, 33245, 33634, 32957, 32052, 31652, 31534, 31823, 32689, 33482, 33636, 33377, 33024], [27995, 30681, 32774, 33083, 34312, 34671, 31264, 25390, 21561, 23320, 29283, 35494, 40703, 44939, 44956, 38059, 29882, 28079, 30475, 31595, 32542, 34342, 33713, 29261, 23815, 22026, 26021, 32668, 38182, 42407, 45145, 42519, 33671, 27022, 28453, 31741, 32179, 33441, 35408, 33454, 27822, 22897, 22527, 27327, 33747, 38691, 42840, 45289, 41462, 32604, 27660, 29297, 31211, 31454, 33029, 34501, 32195, 26824, 23012, 24292, 29408, 34978, 40035, 44562, 45153, 38200, 28990, 26999, 30700, 32143, 31841, 33460, 34215, 30682, 25199, 23090, 26385, 31916, 36568, 40800, 44527, 43411, 35375, 27829, 27708, 30606, 31494, 33008, 35550, 34609, 29155, 23364, 22147, 26566, 33215, 38983, 43382, 45040, 40706, 31917], [36544, 35655, 35630, 35636, 35482, 35778, 35553, 32959, 28973, 26570, 26502, 27692, 29320, 31080, 33431, 35770, 35977, 34447, 33676, 33978, 34935, 36834, 38330, 37572, 34382, 30128, 27036, 25888, 25588, 26291, 29466, 34307, 37642, 37898, 36399, 34970, 34364, 34592, 35500, 36191, 34824, 31117, 27550, 26131, 26404, 27743, 30475, 34056, 36748, 37356, 36148, 34453, 33536, 33735, 34670, 35593, 35413, 33462, 30702, 28814, 27880, 27323, 28034, 30678, 34046, 36515, 36987, 35520, 33932, 33646, 34197, 34969, 35742, 35725, 34061, 31062, 28207, 26621, 26270, 27095, 29737, 33883, 36968, 36996, 35561, 35102, 35580, 36095, 36391, 36059, 34554, 31729, 28294, 25880, 25681, 27280, 29577, 32383, 35611, 37552]], "framecount": 2.0, "time": 1489540231267}
{"dataframe": [[33151, 32034, 32978, 33545, 33568, 34127, 34049, 32533, 31233, 30899, 30570, 30325, 30540, 30866, 32597, 36629, 38992, 35701, 29950, 28143, 31616, 36060, 37094, 34664, 32074, 31033, 30240, 29415, 29865, 31179, 32597, 34725, 36359, 35313, 32911, 31648, 31724, 33133, 35236, 35627, 33956, 32072, 30468, 29309, 29293, 29903, 30760, 32916, 36086, 37603, 35834, 32688, 31375, 32337, 33515, 34187, 34655, 33752, 31438, 30021, 29721, 29237, 29906, 32650, 35136, 35535, 34248, 32788, 33005, 34463, 34702, 33784, 33648, 33948, 33314, 31859, 30022, 28144, 27688, 29815, 32967, 34976, 35944, 36229, 35360, 34342, 34133, 33395, 32024, 32017, 32774, 32061, 30649, 30327, 30467, 30293, 31039, 33497, 36152, 37056], [31620, 34076, 32595, 32216, 33397, 31863, 29130, 30487, 35426, 39364, 40477, 39230, 35917, 31628, 27755, 24960, 25213, 30124, 36129, 37539, 33584, 28571, 27169, 30124, 33981, 36499, 38892, 40903, 40029, 36007, 30573, 25487, 23664, 26875, 32007, 34894, 35072, 33496, 30962, 29415, 30185, 32956, 36889, 39942, 40121, 38066, 35032, 30741, 26010, 24331, 27664, 32645, 34361, 32498, 30633, 30840, 32125, 33489, 35267, 37537, 39488, 39705, 36964, 32093, 27269, 24525, 26285, 31615, 34397, 32826, 32042, 32817, 31212, 28828, 30467, 35683, 40394, 42041, 40187, 36087, 31736, 27608, 24579, 25690, 30139, 32120, 30659, 30895, 33558, 34458, 33477, 34054, 36696, 38984, 39187, 37558, 34617, 29928, 24949, 23686], [34421, 33332, 33105, 33051, 33193, 34036, 34683, 33409, 30173, 27291, 26857, 28601, 31564, 35401, 38226, 37304, 33860, 32109, 32730, 33298, 33583, 34374, 34656, 33753, 32228, 30409, 28690, 27676, 28012, 30471, 34191, 36913, 37792, 36758, 34066, 32263, 32976, 33824, 33385, 33191, 33078, 31643, 29686, 28472, 28275, 29703, 32544, 35087, 36389, 36472, 35339, 33795, 33293, 34171, 34831, 33415, 30992, 30324, 30806, 30027, 29080, 30010, 31693, 33085, 35198, 37140, 36362, 33835, 32688, 32818, 32698, 33002, 34175, 34751, 33505, 30561, 27525, 26802, 28932, 31939, 34412, 36442, 37110, 35427, 33371, 33273, 34326, 34711, 33823, 32213, 31417, 31431, 30157, 28206, 28564, 30679, 32158, 33929, 36867, 38051], [32473, 33028, 33057, 32844, 32671, 32344, 32060, 32417, 33381, 34236, 34456, 34065, 33190, 31896, 30897, 31272, 32589, 33148, 32737, 32550, 32743, 32713, 32505, 32412, 32635, 33300, 34055, 34384, 34028, 33024, 31982, 31470, 31381, 31792, 32701, 33055, 32580, 32536, 32912, 32644, 32377, 33082, 34015, 34354, 34125, 33322, 32248, 31618, 31541, 31723, 32139, 32652, 32833, 32520, 32260, 32799, 33703, 33771, 33289, 33391, 33673, 33289, 32610, 32018, 31560, 31763, 32496, 32703, 32552, 32955, 33309, 32789, 32161, 32246, 32823, 33544, 34108, 34114, 33557, 32764, 31907, 31287, 31577, 32687, 33291, 32813, 32247, 32185, 32338, 32687, 33138, 33357, 33650, 34208, 34210, 33249, 32235, 31785, 31480, 31327], [29492, 31800, 32865, 32937, 32636, 32284, 32231, 32948, 34729, 36863, 37858, 37030, 34978, 32355, 29405, 27375, 28029, 30454, 31984, 32452, 33121, 33332, 32281, 31511, 32920, 35914, 38109, 38090, 36239, 33595, 30888, 28553, 27608, 28987, 31350, 32482, 32542, 32694, 32635, 32098, 32204, 33923, 36626, 38381, 37822, 35549, 32768, 29825, 27561, 27683, 29901, 31810, 32697, 33385, 33228, 31923, 31436, 32830, 34972, 36804, 37714, 37107, 35125, 32275, 29156, 27399, 28350, 30692, 32308, 33018, 33155, 32468, 31621, 31816, 33276, 35470, 37395, 37905, 36791, 34507, 31294, 28078, 26983, 28875, 31593, 32937, 33340, 33386, 32394, 31009, 31219, 33489, 36351, 38152, 38076, 36184, 33219, 30199, 28160, 28059], [32367, 32245, 32785, 32708, 32265, 32688, 33510, 33348, 32386, 31749, 31684, 31812, 32241, 33245, 34274, 34448, 33690, 32550, 31703, 31741, 32579, 33415, 33606, 33185, 32644, 32320, 32058, 31693, 31594, 32223, 33279, 34082, 34362, 33851, 32646, 31957, 32296, 32592, 32613, 33083, 33467, 32890, 32036, 31823, 31955, 32085, 32508, 33199, 33782, 34097, 33800, 32773, 32135, 32654, 33076, 32514, 32189, 32688, 32857, 32356, 31962, 31926, 32264, 33042, 33784, 34001, 33634, 32900, 32437, 32527, 32573, 32487, 32953, 33642, 33368, 32158, 31221, 31214, 31903, 32753, 33315, 33710, 34028, 33687, 32879, 32763, 33235, 33137, 32480, 32126, 32307, 32605, 32470, 31914, 31680, 32066, 32623, 33281, 34099, 34396], [26770, 27315, 30674, 32050, 33557, 35515, 34168, 28540, 22836, 22440, 27671, 33861, 38629, 43176, 45680, 41378, 32172, 26819, 27773, 29893, 31852, 34884, 35998, 32494, 26503, 22740, 24355, 29670, 34951, 39570, 43909, 44644, 38507, 30065, 27153, 29264, 31091, 32574, 34876, 35049, 30897, 24896, 22290, 25593, 31549, 36439, 40659, 44490, 43815, 36305, 28700, 27826, 30322, 31736, 33463, 34930, 32934, 27921, 23442, 23124, 27588, 33452, 38292, 42785, 45559, 41950, 32636, 26643, 28294, 31454, 32403, 33665, 34747, 32551, 27374, 22862, 22990, 28181, 34928, 40525, 44517, 44882, 38783, 30017, 26945, 29837, 32209, 32884, 33997, 33946, 30527, 25191, 22395, 25221, 31456, 36918, 40964, 44360, 43883, 36563], [37230, 35896, 33517, 33672, 36082, 37162, 36114, 33905, 30492, 27208, 26049, 26530, 27810, 30481, 34155, 36914, 37379, 35914, 34271, 33779, 34196, 34982, 35952, 36078, 33941, 30096, 26882, 25618, 26137, 28219, 31374, 34555, 36807, 37623, 37291, 36282, 34774, 33897, 34698, 35661, 34762, 32265, 29162, 26128, 24718, 26135, 29099, 31810, 34731, 37906, 38833, 37179, 35746, 35141, 34507, 34549, 34861, 33648, 30928, 27959, 25779, 25605, 27707, 30714, 33846, 36944, 38327, 37156, 35589, 34905, 34217, 33673, 33675, 33273, 32158, 30702, 28727, 27338, 28566, 31311, 32864, 33697, 34730, 34375, 32952, 33214, 35319, 37277, 38139, 37673, 35774, 32520, 28166, 24344, 23257, 24889, 27957, 32076, 36251, 38576]], "framecount": 3.0, "time": 1489540231361}
{"dataframe": [[35706, 33084, 30941, 30504, 31846, 34147, 35805, 35517, 33435, 30664, 28728, 28805, 30190, 31355, 32555, 34582, 36193, 35884, 34180, 32643, 32658, 34112, 34891, 33990, 32512, 30609, 28542, 28587, 30829, 32198, 32273, 33532, 35714, 36256, 34965, 33476, 32676, 32855, 33439, 33298, 32827, 32619, 31357, 29299, 29630, 32423, 33823, 32944, 32061, 31991, 32914, 34730, 35539, 34876, 34773, 35217, 34305, 31973, 29665, 28774, 29648, 30889, 31403, 31734, 32450, 33641, 34997, 35712, 35729, 35179, 33656, 32443, 33238, 34292, 33092, 30519, 28500, 27676, 28654, 31274, 33823, 35554, 36845, 36759, 34690, 32727, 32411, 32633, 32831, 33369, 33317, 32399, 31809, 31100, 29516, 28965, 30458, 32250, 33940, 35936], [27010, 31401, 34648, 36391, 35232, 31625, 29183, 29900, 33109, 37553, 40635, 40141, 37190, 33438, 28903, 25241, 25596, 29314, 32323, 33167, 33311, 32999, 31522, 29828, 30811, 36126, 41977, 42354, 37257, 32218, 30432, 29681, 27532, 26194, 28274, 31620, 33289, 33652, 33649, 32814, 31545, 32124, 35741, 39683, 39840, 36181, 32617, 30924, 29495, 28333, 29114, 30695, 30714, 30157, 31176, 32511, 31993, 31839, 35134, 39220, 40217, 39254, 37782, 34392, 29399, 25519, 24290, 25516, 28798, 33506, 36877, 35870, 32168, 29853, 30298, 33939, 39956, 43127, 39918, 34487, 31129, 27949, 24314, 24666, 29453, 33061, 33494, 33623, 33803, 32539, 31478, 32719, 35127, 37408, 39538, 39632, 36004, 31203, 28106, 26417], [35932, 33399, 32555, 32579, 32985, 33740, 33908, 32942, 31134, 29043, 27825, 28403, 30379, 33009, 35740, 37318, 36647, 34741, 33617, 33502, 33222, 32691, 32922, 33740, 33330, 30837, 27871, 26669, 28295, 32056, 35486, 36660, 36196, 35354, 34558, 34184, 33992, 33091, 32030, 32232, 32992, 32283, 30355, 29171, 29121, 29644, 31183, 33833, 36292, 37098, 35860, 33987, 33462, 33949, 33577, 32669, 32881, 33225, 31549, 28798, 27419, 27886, 29818, 33004, 36201, 37983, 38094, 36548, 33553, 30980, 30983, 32585, 33435, 33958, 34388, 31990, 27367, 25970, 29017, 32181, 33922, 35965, 37576, 36825, 34825, 33679, 33032, 31961, 31554, 32736, 33801, 32832, 30642, 29039, 28532, 29447, 32011, 34633, 35686, 35769], [31848, 32732, 33251, 33252, 32904, 32530, 32497, 32824, 33386, 33930, 33995, 33588, 33064, 32331, 31461, 31223, 31911, 32727, 32919, 32729, 32870, 33238, 32978, 32228, 32223, 33121, 33917, 34335, 34327, 33189, 31420, 30887, 31790, 32571, 32696, 32688, 32663, 32645, 32779, 32808, 32677, 32942, 33521, 33718, 33742, 33931, 33497, 32122, 30961, 30998, 31876, 32607, 32793, 32769, 32879, 33097, 33141, 33056, 33340, 33897, 33987, 33477, 32739, 31900, 31232, 31171, 31683, 32575, 33646, 34012, 33200, 32410, 32441, 32370, 32126, 32918, 34265, 34463, 33558, 32711, 32201, 31823, 31663, 31906, 32362, 32493, 32453, 33005, 33687, 33353, 32587, 32660, 33227, 33514, 33694, 33548, 32479, 31332, 31444, 32419], [29766, 31654, 32559, 32805, 32707, 32076, 31413, 32155, 34853, 37588, 38195, 37017, 35136, 32456, 29288, 27344, 28046, 30560, 32505, 32951, 32880, 32667, 31984, 31649, 32869, 35279, 37237, 37689, 36820, 34864, 31658, 28218, 27069, 29101, 31778, 32879, 33144, 33118, 32034, 30803, 31336, 33648, 36380, 38189, 38196, 36553, 33879, 30421, 27299, 26812, 29202, 31778, 32986, 33515, 33415, 32493, 31894, 32443, 33940, 36058, 37654, 37221, 35004, 32364, 29816, 27983, 28452, 31047, 32996, 32911, 32236, 31991, 31765, 31760, 32915, 35152, 37017, 37467, 36792, 35165, 32242, 28919, 27441, 28787, 31180, 32446, 32636, 32648, 32412, 31913, 31894, 33199, 35849, 38109, 38034, 36053, 33597, 30731, 27932, 27382], [33786, 32987, 32534, 32256, 32243, 32587, 32806, 32742, 32656, 32317, 31692, 31633, 32423, 33238, 33723, 34051, 33826, 32996, 32483, 32587, 32680, 32613, 32726, 33008, 33037, 32432, 31453, 31097, 31998, 33316, 33707, 33350, 33405, 33745, 33501, 32986, 32782, 32521, 32116, 32185, 32666, 32831, 32427, 31926, 31985, 32635, 33134, 33193, 33341, 33523, 33180, 32738, 32886, 33120, 32826, 32577, 32916, 33148, 32543, 31623, 31327, 31685, 32169, 32755, 33623, 34352, 34396, 33855, 33077, 32228, 31722, 31999, 32733, 33356, 33510, 32687, 31250, 30815, 31815, 32864, 33336, 33847, 34338, 34150, 33402, 32755, 32406, 32162, 32065, 32270, 32592, 32808, 32877, 32511, 31783, 31765, 32748, 33442, 33447, 33623], [28465, 27310, 30032, 31154, 32705, 35565, 35237, 29913, 23577, 21802, 25935, 32186, 37651, 42622, 45741, 42700, 33871, 27639, 28604, 31214, 31755, 32942, 34639, 33199, 27917, 22392, 21669, 27144, 34945, 41235, 45247, 45473, 39387, 30632, 27375, 29676, 31042, 31249, 33236, 34417, 31467, 26022, 22818, 25131, 31171, 36641, 40560, 43944, 43700, 36440, 28231, 27446, 31181, 32963, 33675, 34741, 33691, 29199, 23448, 21420, 25772, 32638, 37878, 42178, 45440, 43226, 34797, 28220, 28562, 30442, 30510, 32177, 34927, 34214, 29330, 23882, 22486, 26619, 33136, 38933, 43496, 45218, 40841, 32413, 27852, 29282, 31134, 31759, 33530, 34675, 31845, 26182, 22678, 24627, 29942, 35167, 39904, 44012, 44153, 37842], [38933, 38534, 37484, 35925, 35058, 34880, 34163, 32472, 29644, 26263, 24765, 25904, 27438, 29009, 32505, 37025, 39350, 38729, 37144, 36034, 35392, 35018, 34688, 33466, 30539, 27718, 28267, 30734, 30387, 28312, 29102, 32062, 34169, 35178, 35213, 34632, 35152, 36761, 37649, 37372, 36117, 33341, 29627, 26660, 25054, 25056, 27238, 30793, 34178, 36625, 37305, 36262, 35548, 36186, 36851, 36763, 36110, 34219, 30689, 27127, 25400, 25487, 26608, 28762, 32188, 36175, 38609, 37973, 35861, 34786, 34857, 35171, 35461, 35094, 33507, 31180, 28815, 26896, 25853, 26094, 28488, 33135, 37449, 38515, 36861, 35138, 34520, 34628, 35105, 35542, 35233, 33554, 30468, 27301, 25957, 26570, 27896, 30091, 33885, 37284]], "framecount": 5.0, "time": 1489540231549}
{"dataframe": [[36591, 35425, 34282, 33514, 32792, 33021, 33448, 32201, 30389, 30194, 30772, 30404, 29987, 31296, 34066, 36244, 36265, 34988, 34139, 33437, 32381, 32396, 33532, 33456, 31997, 30975, 30307, 29719, 30527, 32422, 33658, 34274, 34684, 34209, 33469, 33774, 34127, 33216, 32344, 32723, 33254, 33138, 32652, 31271, 28963, 28149, 30614, 34022, 35453, 35684, 36007, 35045, 32338, 30828, 32356, 34126, 33628, 32734, 32640, 31571, 30013, 30261, 31601, 32309, 32927, 34105, 34889, 34511, 33680, 33393, 33603, 33752, 33327, 32231, 31486, 31562, 31302, 30764, 31265, 32098, 32184, 32931, 35042, 36157, 34580, 31900, 30868, 32357, 34392, 34734, 33982, 33408, 32040, 29859, 29308, 30511, 31159, 31676, 33839, 36177], [26283, 28504, 31330, 32827, 33185, 32433, 30838, 31224, 35094, 38906, 40491, 41568, 39992, 33096, 25963, 23548, 24499, 27352, 31266, 33919, 34631, 33882, 32017, 31406, 33454, 35959, 37846, 39557, 39135, 35281, 30417, 26951, 25664, 27063, 30075, 32568, 34066, 34519, 33180, 31010, 30211, 31644, 35034, 39218, 41854, 40693, 35424, 28700, 24280, 23827, 26885, 32200, 36820, 36565, 31686, 28709, 30553, 32571, 33603, 36972, 40199, 39218, 36168, 33258, 29711, 26787, 26702, 29011, 31760, 33142, 32394, 31073, 31551, 33259, 34003, 34944, 37798, 39484, 37480, 34748, 32802, 29106, 25101, 25725, 30217, 33568, 34409, 33800, 31922, 30413, 30933, 32416, 35002, 39280, 41444, 39034, 35257, 31462, 26394, 23374], [35510, 34509, 33492, 33487, 33573, 33026, 33174, 33942, 32613, 28896, 26282, 27065, 30378, 33946, 35830, 36406, 36961, 36370, 33816, 31904, 32309, 33236, 33524, 33662, 33030, 31029, 28989, 28067, 28381, 30320, 33503, 36362, 37809, 37155, 34564, 32144, 31593, 32367, 33383, 34138, 34463, 33967, 31692, 28004, 25965, 27678, 31180, 34157, 36906, 38718, 37174, 33370, 31449, 32314, 33506, 34058, 34614, 34311, 31742, 28414, 27086, 27742, 29380, 32408, 36043, 37815, 36886, 34787, 33328, 33177, 33863, 34272, 33578, 32381, 31667, 30716, 28897, 27919, 28948, 30786, 33017, 36084, 38052, 36905, 34684, 33934, 33346, 32007, 32215, 33817, 33460, 31161, 29774, 29629, 29459, 29374, 30513, 33582, 37152, 38031], [33061, 33121, 32899, 32568, 32366, 32473, 32535, 32284, 32543, 33933, 35068, 34373, 32702, 31866, 31960, 31950, 31713, 31999, 32786, 33209, 33038, 32779, 32547, 32214, 32245, 33030, 33983, 34398, 34203, 33505, 32491, 31517, 30916, 31175, 32386, 33457, 33398, 32754, 32519, 32668, 32585, 32363, 32898, 34162, 34644, 33769, 32872, 32523, 31785, 30975, 31538, 32845, 33029, 32501, 32731, 33066, 32415, 31974, 32999, 34260, 34426, 34129, 33760, 32712, 31386, 30905, 31476, 32421, 32866, 32594, 32403, 32796, 33195, 33081, 32776, 32932, 33698, 34358, 34148, 33231, 32206, 31344, 30971, 31494, 32380, 32720, 32909, 33462, 33433, 32547, 32301, 33115, 33576, 33252, 33298, 33898, 33721, 32395, 31248, 31246], [29618, 32069, 32946, 32989, 32798, 32201, 31655, 31915, 33561, 36427, 38443, 37703, 35294, 32880, 30220, 27845, 27846, 30096, 32135, 32942, 33081, 32731, 32027, 31525, 32041, 34286, 37202, 38372, 37260, 35201, 32584, 29297, 27110, 28058, 30861, 32566, 32760, 32648, 32354, 31861, 31967, 33296, 35630, 37652, 37840, 36317, 34206, 31622, 28722, 27391, 28831, 31057, 31947, 32413, 33420, 33519, 32142, 31491, 33298, 36349, 38080, 37491, 35618, 33383, 30611, 27904, 27426, 29764, 32240, 32902, 32941, 33156, 32443, 31038, 31246, 33981, 37182, 38616, 38013, 35752, 32331, 29126, 27519, 28090, 30291, 32219, 32728, 32791, 32916, 32249, 31352, 32267, 35166, 37800, 38471, 37223, 34646, 31455, 28643, 27350], [33788, 33311, 32744, 32561, 32429, 32496, 33028, 33214, 32431, 31542, 31327, 31559, 32275, 33421, 34073, 34029, 33946, 33658, 32913, 32352, 32241, 32261, 32402, 32608, 32709, 32760, 32514, 31872, 31726, 32584, 33499, 33721, 33647, 33482, 32966, 32466, 32448, 32577, 32646, 33003, 33438, 33250, 32429, 31537, 31006, 31292, 32516, 33793, 34381, 34497, 34013, 32636, 31485, 31877, 33092, 33491, 33037, 32750, 32600, 32038, 31452, 31457, 32082, 33055, 33902, 34182, 33895, 33349, 32827, 32527, 32598, 32831, 32641, 32187, 32293, 32590, 32148, 31742, 32295, 32842, 32925, 33594, 34477, 34100, 32933, 32342, 32204, 32127, 32475, 32950, 32884, 32671, 32607, 32253, 31895, 32054, 32472, 33133, 34001, 34160], [30160, 28373, 30679, 31526, 32000, 34029, 34502, 30762, 24733, 21650, 24763, 31350, 37423, 42296, 45215, 42925, 35196, 28830, 28713, 30673, 31126, 32569, 34826, 33681, 28366, 23152, 22864, 27641, 33520, 38463, 43004, 45334, 41524, 32848, 27174, 27994, 30462, 31937, 34076, 35475, 33198, 27743, 22926, 22999, 28040, 34075, 39216, 44126, 45921, 40184, 30935, 27183, 28857, 30202, 31568, 34344, 35105, 31681, 26112, 22732, 24877, 30744, 36296, 40958, 44732, 43518, 35449, 28112, 28338, 31548, 32522, 33482, 34637, 32639, 27867, 23419, 22423, 26674, 33595, 38997, 42701, 45288, 42824, 34351, 27664, 27084, 28465, 30671, 34675, 36423, 33309, 27803, 23247, 23163, 28328, 34376, 38651, 42997, 45453, 40405], [37592, 35976, 35163, 35138, 35141, 35594, 36018, 35150, 32699, 29308, 26438, 25439, 26179, 28209, 31577, 35317, 37501, 37281, 35796, 34878, 35070, 35647, 35985, 35577, 33924, 31266, 28485, 26539, 26038, 26904, 29000, 32383, 35945, 37552, 36717, 35380, 35064, 35265, 35372, 35533, 35282, 33692, 30913, 28165, 26416, 26034, 27298, 30114, 33707, 36780, 37739, 36270, 34428, 34168, 35166, 36168, 36415, 35509, 33232, 29794, 26470, 25025, 25702, 27532, 30525, 34664, 37760, 37827, 36280, 35575, 35726, 35789, 35816, 35561, 34038, 31090, 27938, 26169, 26293, 27566, 29400, 31862, 34455, 35267, 33950, 35264, 41324, 44063, 38825, 33282, 31599, 29102, 25558, 24543, 24811, 25455, 29428, 35629, 39133, 39225]], "framecount": 6.0, "time": 1489540231658}
{"dataframe": [[36388, 34804, 32634, 31226, 32007, 33816, 34331, 33907, 33323, 31684, 29677, 29421, 30593, 31578, 32586, 34001, 34789, 34674, 34525, 34225, 33254, 32552, 33178, 34264, 34005, 32059, 30079, 29473, 29917, 30887, 32293, 33439, 33802, 33979, 34442, 34785, 34551, 33772, 33180, 33571, 34168, 33342, 31350, 29976, 29737, 29749, 29796, 30812, 33212, 35566, 36161, 35467, 34960, 34565, 33696, 32916, 32719, 32597, 31917, 30645, 29438, 29196, 30193, 31917, 33741, 35158, 35524, 34803, 34187, 34300, 33977, 32652, 32025, 32968, 33121, 31273, 30245, 31206, 31565, 30746, 30950, 32886, 35080, 35590, 34196, 33169, 33632, 33987, 33827, 34106, 33871, 32219, 30612, 29987, 29717, 29850, 30754, 32317, 34470, 36036], [26049, 31004, 33675, 34389, 34121, 32644, 31162, 31092, 32796, 36238, 39508, 39912, 37881, 34788, 29733, 24390, 24150, 28968, 32673, 33441, 34168, 34851, 33611, 31029, 29827, 32350, 36924, 39143, 38398, 36793, 33556, 28364, 25754, 28640, 32423, 32490, 31420, 32208, 32605, 31261, 30476, 31613, 34551, 38318, 40154, 38889, 36401, 33184, 28708, 25636, 26731, 29850, 31674, 32433, 32965, 32411, 31064, 30905, 33124, 37022, 40215, 40532, 38161, 34496, 30255, 26538, 25548, 27755, 30381, 31515, 32474, 33382, 32182, 30586, 32946, 37688, 39693, 39199, 38211, 35275, 30565, 27000, 25831, 27247, 30646, 33247, 33855, 33819, 32617, 30203, 29909, 32550, 35311, 37695, 40253, 40547, 36948, 31585, 26903, 24817], [35632, 33340, 33098, 33180, 32828, 33214, 33908, 33490, 31883, 29718, 27992, 27985, 29668, 32040, 34902, 37558, 37742, 35323, 33597, 33649, 32841, 31063, 31324, 33461, 34193, 32545, 30336, 29076, 29142, 30408, 32432, 34622, 36101, 35883, 34360, 33235, 33208, 33806, 34498, 34292, 32883, 31617, 30677, 29119, 28149, 29151, 31022, 33059, 35706, 37443, 36433, 34288, 33403, 33286, 33001, 33195, 33786, 33516, 31947, 29729, 28032, 28014, 29642, 31924, 34397, 36584, 37078, 35715, 34481, 34155, 33675, 33130, 32877, 32003, 30916, 30694, 30070, 28684, 29160, 32000, 34514, 35576, 35937, 35537, 34237, 33002, 32613, 33056, 33877, 34038, 33283, 32730, 32111, 29820, 26896, 26669, 29918, 34051, 36813, 37676], [32004, 32622, 32654, 32508, 32700, 32980, 32918, 32784, 33149, 33849, 34091, 33708, 33206, 32663, 31890, 31258, 31358, 32153, 32787, 32756, 32815, 33347, 33364, 32663, 32427, 32974, 33535, 33791, 33677, 33063, 32436, 32167, 31849, 31598, 32028, 32795, 33139, 32940, 32470, 32265, 32673, 33286, 33708, 33944, 33837, 33396, 32935, 32334, 31524, 31225, 31825, 32608, 32983, 33083, 32975, 32641, 32405, 32548, 33016, 33637, 34104, 34038, 33430, 32676, 32014, 31508, 31497, 32041, 32531, 32693, 32736, 32722, 32975, 33474, 33243, 32566, 33055, 34190, 34065, 32960, 32176, 31737, 31548, 31875, 32376, 32713, 32990, 33074, 32958, 32919, 32660, 32102, 32318, 33674, 34795, 34566, 33385, 32189, 31489, 31305], [28377, 30825, 32473, 32685, 32707, 32846, 32327, 31863, 33268, 36180, 38139, 37904, 35971, 33137, 30391, 28492, 27978, 29416, 31657, 32567, 32395, 32408, 32272, 31943, 32590, 34523, 36785, 38203, 37815, 35540, 32493, 29620, 27413, 27227, 29644, 32380, 33329, 33190, 32874, 32157, 31611, 32573, 35090, 37525, 38228, 36980, 34625, 31766, 28732, 26976, 28151, 30976, 32644, 33017, 33256, 32918, 31871, 31611, 33104, 35731, 37887, 37982, 36089, 33658, 31054, 28267, 27344, 29491, 32002, 32689, 32808, 32950, 32277, 31476, 31701, 33308, 36158, 38451, 38225, 36185, 33638, 30446, 27549, 27273, 29484, 31545, 32383, 32801, 32966, 32547, 31943, 32380, 34778, 37701, 38426, 36783, 34592, 32165, 29180, 27218], [33422, 32815, 32578, 32263, 32201, 32672, 33130, 33165, 32735, 32026, 31755, 32162, 32434, 32490, 33226, 34176, 34043, 33278, 32981, 32754, 32039, 31539, 31997, 33066, 33721, 33344, 32488, 32077, 32139, 32278, 32594, 33175, 33522, 33274, 32862, 32818, 32933, 32816, 32715, 32946, 33193, 33040, 32508, 31892, 31577, 31774, 32262, 32765, 33324, 33856, 33966, 33596, 33114, 32733, 32535, 32602, 32715, 32631, 32444, 32215, 31905, 31753, 32023, 32658, 33391, 33858, 33847, 33590, 33373, 33113, 32720, 32384, 32338, 32511, 32452, 32064, 31882, 32053, 32255, 32573, 33213, 33900, 34141, 33726, 33047, 32669, 32522, 32351, 32418, 32707, 32672, 32456, 32606, 32678, 32094, 31626, 32150, 33188, 33897, 34022], [31075, 27385, 29670, 31196, 31901, 34028, 34659, 31317, 25779, 22304, 24409, 30500, 36131, 40572, 44773, 44867, 37370, 28899, 27733, 30580, 31319, 31805, 33815, 33885, 29902, 24468, 22637, 26686, 33170, 38204, 41956, 44543, 42180, 33822, 27311, 28297, 31207, 31766, 33359, 35587, 33542, 27549, 22868, 23321, 28255, 34168, 38974, 42848, 44273, 39663, 31126, 27313, 30121, 32723, 33270, 34713, 35190, 31359, 24883, 20916, 23041, 29523, 35994, 41046, 45085, 45101, 38024, 29497, 27820, 30700, 31835, 32357, 34019, 33655, 29427, 23872, 21649, 25277, 32221, 38545, 43152, 45647, 43022, 34542, 27614, 28165, 31114, 31608, 32641, 34649, 33253, 27995, 23284, 23082, 27402, 33295, 38796, 43583, 45605, 41085], [37830, 35314, 32857, 32157, 32656, 33435, 34657, 35434, 34177, 31240, 28512, 27194, 27396, 28773, 31102, 34178, 36572, 36502, 34810, 33865, 34162, 35056, 36238, 36694, 35344, 32705, 29769, 26957, 25361, 26238, 28739, 31448, 34599, 37264, 37188, 35610, 35314, 35589, 35377, 35697, 35762, 33710, 30559, 28089, 26316, 25631, 27005, 30008, 33677, 37103, 38394, 36796, 34630, 34019, 34518, 35203, 35728, 35363, 33349, 30183, 27520, 26466, 26791, 28104, 30608, 34040, 36736, 37033, 35498, 34251, 34295, 35072, 35920, 36393, 35724, 33179, 29402, 26479, 25679, 26451, 28270, 31443, 35328, 37374, 35988, 33788, 34303, 36477, 37460, 37530, 37233, 34967, 30791, 27228, 25426, 24884, 25742, 28380, 32373, 36291]], "framecount": 7.0, "time": 1489540231767}
{"dataframe": [[35558, 34309, 33950, 33505, 32682, 32884, 33575, 33282, 32311, 31183, 30028, 29682, 30412, 31493, 32869, 34555, 35424, 34918, 34114, 33763, 33510, 33264, 33175, 33056, 32883, 32335, 30747, 29049, 29210, 31222, 33314, 34437, 34771, 34487, 33605, 33064, 33547, 34058, 34090, 34222, 34057, 32863, 30702, 28162, 26851, 28504, 32648, 36697, 38225, 36804, 34179, 32576, 32416, 32132, 31097, 30902, 32178, 33448, 33797, 33432, 32656, 32065, 31984, 31813, 31522, 32253, 33835, 34082, 32507, 31780, 33242, 34678, 34863, 35032, 34618, 32191, 29698, 29375, 29888, 30005, 31012, 33255, 35145, 35759, 35341, 34385, 33590, 33332, 33052, 32269, 31698, 32052, 32449, 31843, 31052, 31212, 31692, 31696, 32066, 33538], [26727, 30142, 31777, 32821, 34077, 33324, 31310, 30986, 32658, 35749, 39355, 40623, 38361, 34710, 30866, 26830, 24938, 27201, 31062, 33142, 33415, 32599, 31129, 30794, 32398, 34846, 37925, 40998, 40863, 35682, 29136, 26832, 28813, 30326, 29935, 30109, 31526, 32894, 33275, 32314, 30652, 30098, 32755, 38370, 42523, 41405, 36858, 32439, 28686, 25785, 25434, 27577, 30205, 32701, 34615, 33986, 31611, 31173, 33377, 36389, 39076, 39821, 37649, 34525, 31805, 28138, 24416, 25000, 30363, 34461, 33821, 32484, 32928, 32198, 31099, 33659, 37485, 38329, 38263, 38737, 35998, 29703, 25042, 24828, 27579, 30907, 32822, 32938, 32893, 33816, 34360, 33209, 32719, 35526, 39016, 39212, 36491, 32863, 28982, 26246], [36763, 35001, 33724, 33141, 32817, 32841, 33152, 33056, 31917, 29871, 28138, 28088, 29796, 32308, 34793, 36663, 37112, 35756, 33742, 32654, 32622, 33122, 34017, 34418, 33080, 30653, 28882, 28087, 28178, 30179, 33755, 36323, 36617, 35648, 34384, 33450, 33256, 33238, 33010, 33338, 34278, 34062, 31396, 27998, 27070, 29092, 31328, 32348, 33977, 36944, 38507, 36857, 33697, 31212, 30615, 32326, 34540, 34828, 33284, 31058, 28836, 27857, 28823, 30863, 33293, 35836, 37238, 36483, 34465, 32764, 32199, 32894, 34160, 34673, 33844, 32196, 30147, 28087, 27137, 28143, 30907, 34620, 37646, 38137, 36316, 34461, 33719, 33103, 32229, 32133, 32885, 33084, 31927, 30044, 28375, 27687, 29058, 32625, 36311, 37793], [31522, 32079, 32707, 32973, 32900, 32841, 32771, 32640, 32905, 33662, 34174, 34016, 33507, 32852, 32031, 31341, 31288, 31940, 32659, 32891, 32905, 32977, 32723, 32268, 32552, 33526, 34087, 34047, 33840, 33256, 32320, 31594, 31302, 31603, 32421, 32963, 32907, 32851, 32939, 32730, 32383, 32568, 33413, 34228, 34138, 33218, 32639, 32678, 32132, 31018, 31051, 32443, 33548, 33748, 33579, 33006, 32060, 31640, 32196, 33063, 33650, 34056, 34196, 33576, 32408, 31594, 31527, 31910, 32373, 32849, 33283, 33120, 32174, 31563, 32143, 33199, 34003, 34587, 34617, 33778, 32655, 31751, 31071, 31041, 31897, 32656, 32673, 32800, 33354, 33313, 32638, 32517, 33096, 33561, 33847, 34111, 33701, 32421, 31279, 31099], [28017, 30564, 32437, 33001, 33158, 33070, 32312, 31623, 32628, 35406, 37732, 37849, 36360, 34248, 31404, 28374, 27240, 28943, 31424, 32562, 32892, 33251, 32889, 31776, 31590, 33346, 36013, 37739, 37656, 36322, 34259, 31020, 27427, 26540, 29207, 32099, 32940, 32902, 32901, 32498, 32057, 32684, 34576, 36600, 37478, 36973, 35301, 32414, 29057, 27331, 28594, 31354, 32911, 32770, 32425, 32378, 31873, 31273, 32359, 35386, 37922, 38206, 36982, 34950, 31848, 28456, 26947, 28412, 30968, 32353, 32930, 33320, 32705, 31562, 31628, 33387, 36183, 38520, 38397, 35843, 32966, 30491, 28073, 27333, 29417, 31856, 32618, 32918, 33228, 32461, 31463, 32160, 34512, 36905, 37966, 37345, 35480, 32770, 29529, 27148], [33630, 33081, 32757, 32541, 32404, 32624, 32943, 32906, 32614, 32211, 31753, 31643, 32115, 32815, 33434, 33934, 34044, 33558, 32905, 32522, 32363, 32449, 32826, 33109, 32908, 32358, 31877, 31622, 31648, 32371, 33651, 34184, 33555, 33013, 33076, 33079, 32839, 32568, 32396, 32569, 33067, 33333, 32729, 31533, 31140, 32023, 32826, 32914, 33262, 33980, 34072, 33479, 32879, 32455, 32332, 32679, 32927, 32625, 32330, 32300, 32113, 31928, 32144, 32594, 33154, 33839, 34177, 33693, 32802, 32388, 32594, 32754, 32661, 32732, 32802, 32436, 32081, 32127, 32018, 31777, 32404, 33742, 34405, 34074, 33522, 33064, 32644, 32369, 32189, 32015, 32176, 32823, 33226, 32759, 31984, 31810, 32338, 33045, 33506, 33674], [31988, 27302, 29562, 31693, 31709, 33473, 35103, 32210, 26237, 22229, 23458, 28954, 35127, 40119, 44173, 45120, 39326, 30480, 27514, 30282, 31630, 31647, 33660, 34494, 30568, 24575, 21850, 24766, 31233, 37812, 42991, 45903, 43452, 34624, 26892, 27299, 31176, 32320, 33046, 34957, 34328, 29374, 23234, 21367, 26146, 33663, 39280, 42929, 44830, 41534, 33132, 27562, 28663, 30834, 31616, 33811, 35559, 32932, 27128, 22613, 22975, 28103, 34463, 39696, 43940, 45283, 40130, 31512, 27694, 29353, 30794, 31709, 34046, 34777, 30901, 24739, 21818, 24982, 31178, 36521, 41199, 45411, 44819, 36805, 28503, 27710, 30618, 31254, 31776, 33684, 33372, 29353, 24462, 23062, 26998, 33206, 38293, 42500, 45342, 42412], [37991, 37146, 36101, 36081, 35973, 35507, 35471, 35243, 33297, 29789, 26707, 25342, 25571, 27452, 30876, 34609, 37345, 38184, 36982, 35423, 35018, 35003, 34756, 34789, 34382, 32252, 29019, 26570, 25918, 26871, 29083, 32266, 35503, 37355, 37141, 35795, 34807, 34687, 35027, 35274, 35089, 34222, 32267, 29383, 26830, 25807, 26218, 27336, 30229, 36034, 40728, 40181, 37923, 37092, 34944, 32409, 33127, 34083, 31939, 29572, 28222, 26199, 25362, 27425, 30583, 34607, 38871, 39260, 36171, 34801, 35103, 34365, 34256, 35491, 34986, 32303, 29987, 28422, 26708, 25760, 26876, 29921, 33785, 36780, 37759, 37299, 36261, 35083, 34973, 36198, 36734, 35191, 31991, 28166, 25447, 24965, 25982, 28144, 32028, 36245]], "framecount": 8.0, "time": 1489540231861}
{"dataframe": [[35069, 35421, 34708, 33570, 32791, 33272, 34341, 33872, 31561, 29793, 30176, 31133, 30805, 30420, 31872, 34248, 35659, 35847, 35191, 33926, 32826, 32672, 33287, 33536, 32501, 31033, 30529, 30721, 30992, 31496, 31828, 32177, 33853, 35844, 35721, 34120, 32991, 32439, 32508, 33405, 33812, 33072, 32448, 32237, 31347, 29665, 28611, 29764, 32725, 35260, 36187, 35790, 34460, 33303, 33394, 33879, 33775, 33516, 32720, 30639, 28830, 28880, 29933, 31448, 33887, 35738, 35244, 34107, 34188, 34046, 33094, 32876, 32963, 32574, 32891, 33457, 32583, 30977, 29791, 29064, 29763, 32496, 35324, 36254, 35601, 34420, 33273, 32780, 33172, 33576, 33135, 32272, 31684, 31058, 30253, 30223, 31272, 32350, 33010, 33940], [26570, 29108, 31342, 32818, 33929, 33428, 31269, 30424, 32902, 36936, 39393, 39126, 37127, 34617, 31900, 28664, 25974, 26490, 29999, 32660, 32989, 32418, 31198, 30587, 33230, 37287, 38765, 38245, 37449, 35659, 33250, 30690, 26908, 24487, 27319, 32208, 34152, 34244, 33810, 31888, 30745, 32346, 34356, 36064, 38660, 39758, 37075, 32750, 28820, 25881, 26275, 30383, 33629, 33341, 32098, 31573, 30677, 30159, 32297, 36390, 39546, 40677, 39674, 35616, 29638, 25775, 26138, 28772, 31313, 33034, 33363, 32265, 31271, 31284, 31613, 32331, 34434, 37980, 41287, 41300, 36895, 30857, 26035, 23725, 25464, 30518, 34355, 34143, 31997, 30903, 31367, 32687, 34839, 37894, 40053, 38882, 35319, 32712, 31207, 28521], [36875, 35145, 34060, 33617, 32965, 32102, 32041, 32849, 32797, 30996, 29163, 28922, 29820, 31115, 33122, 35941, 37671, 36133, 33094, 32274, 33397, 34030, 34136, 34005, 32757, 30820, 29458, 28862, 28994, 30009, 31583, 33811, 36734, 38053, 35897, 33169, 33023, 33575, 32838, 32456, 33066, 32982, 31681, 29878, 28432, 28558, 30490, 33109, 35792, 37544, 36384, 33387, 32236, 32974, 33200, 33407, 34418, 34492, 32815, 30613, 28728, 27789, 28729, 31240, 33803, 35614, 36570, 36000, 34029, 32775, 33335, 34220, 34280, 33778, 32909, 31606, 29926, 28330, 27993, 29689, 32223, 33961, 35461, 37295, 37279, 34369, 31742, 31928, 33346, 34044, 34151, 33662, 31825, 29276, 27970, 28507, 29848, 31683, 34366, 36806], [31756, 32523, 32714, 32554, 32794, 33341, 33397, 32820, 32368, 32709, 33607, 34138, 33804, 33067, 32356, 31577, 31217, 31957, 32912, 32956, 32737, 32866, 32748, 32376, 32434, 33016, 33693, 33981, 33756, 33441, 33162, 32411, 31325, 31097, 32077, 32884, 32665, 32440, 32951, 33314, 32875, 32452, 32868, 33713, 34164, 33923, 33166, 32309, 31580, 31172, 31654, 32750, 33217, 33074, 33109, 32891, 32241, 32124, 32657, 33229, 33838, 34213, 33739, 32876, 32411, 32005, 31449, 31654, 32651, 33101, 32810, 32626, 32437, 32153, 32528, 33483, 34139, 34298, 34005, 33046, 31950, 31698, 31998, 31897, 31806, 32534, 33404, 33493, 33037, 32487, 32000, 32020, 32824, 33759, 34127, 34092, 33839, 33007, 31764, 31136], [27618, 30466, 32670, 32983, 32798, 32698, 32195, 31748, 32410, 34602, 37376, 38681, 37441, 34537, 31220, 28354, 27272, 28814, 31376, 32682, 32865, 33047, 32875, 31866, 31231, 32635, 35645, 37887, 38068, 36751, 34334, 30981, 28029, 27332, 29129, 31505, 32721, 33001, 32979, 32400, 31496, 31610, 33661, 36687, 38519, 37981, 35736, 32960, 30123, 27774, 27430, 29490, 31844, 32931, 33256, 33014, 32074, 31526, 32474, 34752, 37192, 38214, 37147, 34904, 32362, 29468, 27232, 27744, 30393, 32238, 32809, 33386, 33282, 31913, 31265, 33023, 36103, 38079, 37726, 35878, 33681, 31105, 28536, 27835, 29543, 31406, 31998, 32516, 33275, 32867, 31589, 31615, 33731, 36476, 38113, 37994, 36224, 33224, 29777, 27259], [33633, 33402, 33010, 32560, 32273, 32360, 32708, 32941, 32753, 32244, 31989, 32231, 32457, 32492, 32830, 33500, 33893, 33650, 33025, 32565, 32557, 32823, 33048, 32968, 32547, 32132, 31998, 32019, 32118, 32334, 32570, 33022, 33930, 34444, 33647, 32552, 32557, 32976, 32692, 32269, 32350, 32503, 32476, 32378, 32146, 32012, 32375, 33120, 33838, 34134, 33649, 32700, 32225, 32413, 32651, 32838, 33145, 33210, 32759, 32128, 31730, 31656, 31907, 32649, 33724, 34238, 33736, 32990, 32662, 32565, 32560, 32722, 32867, 32871, 32850, 32798, 32577, 32101, 31592, 31675, 32434, 33198, 33812, 34372, 34168, 32958, 31939, 32003, 32644, 33080, 33055, 32801, 32600, 32257, 31793, 31808, 32278, 32666, 33086, 33699], [33363, 26954, 28220, 31048, 31619, 33019, 34716, 32953, 27844, 23155, 23212, 28645, 35186, 39758, 43246, 44721, 40087, 31099, 26503, 28584, 31140, 32342, 34589, 35738, 32316, 25872, 21751, 23748, 30084, 36136, 40433, 44000, 44446, 38060, 29448, 27296, 30259, 31783, 32572, 34610, 34384, 29825, 24303, 22477, 25726, 31349, 36640, 41769, 45952, 44236, 35260, 27747, 28009, 30413, 30743, 32578, 35517, 34367, 28468, 22551, 21973, 27422, 34264, 39413, 43711, 45637, 40840, 31529, 26777, 28867, 31367, 32062, 33604, 34759, 32224, 26671, 22744, 24216, 29684, 35308, 39908, 43736, 44272, 38509, 30430, 27635, 29645, 31267, 32687, 34873, 34673, 30346, 24512, 21945, 25251, 31650, 37069, 41209, 44512, 43446], [38012, 37070, 35642, 35103, 35247, 35626, 35912, 35636, 34066, 31152, 28333, 26656, 25939, 26745, 29500, 32977, 36016, 37527, 36432, 34436, 34274, 35397, 36089, 36401, 36069, 33923, 30387, 27233, 25487, 25455, 27199, 30261, 33890, 36908, 37823, 36651, 35224, 34831, 35243, 35725, 35689, 34728, 32499, 29245, 26379, 25379, 26436, 28829, 32039, 35614, 37859, 37171, 35187, 34683, 35289, 35462, 35549, 35688, 34455, 31314, 27918, 26156, 26191, 27229, 29214, 32448, 36016, 37751, 36742, 35033, 34792, 35514, 36078, 36356, 35676, 33160, 29649, 26892, 25614, 25734, 27301, 30388, 34428, 37601, 38036, 36446, 35324, 35437, 35689, 35362, 34776, 34217, 32670, 29452, 26592, 26014, 26644, 27702, 30581, 34969]], "framecount": 9.0, "time": 1489540231955}
{"dataframe": [[32727, 32328, 34367, 36012, 34923, 33385, 33315, 33668, 33236, 32107, 30894, 29822, 28997, 29441, 31741, 34438, 36000, 35918, 34129, 32407, 32832, 33878, 33590, 33511, 34214, 33408, 31167, 29862, 29789, 30178, 31071, 32182, 33351, 34709, 35318, 34676, 33974, 33775, 33597, 33624, 33777, 33152, 31791, 30486, 29601, 29568, 30648, 32110, 33274, 34343, 35170, 35008, 34193, 33696, 33250, 32605, 33014, 34541, 34624, 32254, 29721, 28519, 28250, 29215, 31911, 35042, 36557, 36220, 35352, 34438, 33549, 33554, 33836, 32467, 30534, 30539, 31284, 30835, 30690, 31831, 32494, 32529, 33828, 35825, 36020, 34257, 32478, 31794, 32002, 32636, 33563, 34428, 34113, 32080, 29611, 28543, 29556, 31832, 33977, 35328], [26365, 25961, 27496, 30598, 34151, 34003, 31138, 30413, 31791, 33103, 35415, 39710, 43184, 41417, 34457, 27732, 24650, 24684, 27711, 31802, 32812, 31566, 31994, 32986, 32180, 32285, 35602, 39291, 40444, 39178, 36035, 31620, 27467, 25234, 26116, 29370, 32119, 33063, 33301, 32939, 31586, 31047, 33335, 37397, 40218, 40040, 37302, 33527, 29969, 27094, 25873, 27676, 31128, 32972, 32759, 32147, 31336, 30334, 31263, 35733, 40632, 41122, 38569, 37482, 35462, 28802, 22875, 23317, 27042, 30526, 33376, 33444, 31472, 32895, 36902, 37438, 35823, 36691, 37818, 36073, 33170, 30462, 27782, 26423, 27351, 30021, 33255, 34728, 33868, 33352, 33005, 30632, 29855, 34656, 40427, 41262, 37964, 33593, 29384, 26305], [36547, 37794, 36393, 33020, 30608, 31523, 33997, 34931, 34131, 32275, 29604, 27689, 27789, 29281, 31712, 34945, 37399, 37353, 35334, 33445, 33036, 33640, 33809, 33173, 32822, 32667, 31107, 28667, 27883, 29129, 30902, 33024, 35684, 37297, 36454, 34493, 33604, 33648, 33369, 33029, 33276, 33279, 31902, 29586, 28062, 28329, 29831, 31854, 34339, 36759, 37463, 35659, 33259, 32639, 33702, 34687, 34211, 32761, 32121, 31448, 28554, 26268, 28223, 31461, 33068, 35348, 38239, 38152, 35327, 32936, 32004, 32337, 33554, 33988, 32703, 31078, 30117, 29286, 28800, 29887, 32537, 34980, 35745, 35317, 34858, 34280, 33385, 33127, 33550, 33402, 32929, 33165, 32925, 30770, 28272, 27828, 29534, 32096, 34570, 36417], [31628, 31303, 32181, 33114, 33420, 33314, 32719, 32000, 32063, 32970, 33949, 34322, 33942, 33264, 32680, 32000, 31359, 31464, 32235, 32818, 32958, 32900, 32723, 32555, 32596, 32869, 33307, 33774, 34021, 33807, 33106, 32234, 31647, 31548, 31845, 32280, 32624, 32857, 33021, 32999, 32737, 32546, 32878, 33586, 33952, 33752, 33429, 33027, 32180, 31286, 31328, 32274, 33005, 32957, 32485, 32108, 32395, 33201, 33328, 32915, 33609, 34761, 34236, 32754, 32087, 31628, 30923, 31299, 32670, 33294, 33079, 33077, 32954, 32316, 32184, 32932, 33613, 33967, 34249, 33833, 32476, 31392, 31438, 32035, 32479, 32673, 32711, 32732, 32794, 32777, 32663, 32606, 32806, 33360, 33977, 34163, 33726, 32831, 31880, 31300], [27249, 29695, 32622, 32984, 32157, 32531, 32819, 31989, 32117, 34345, 36936, 37917, 36981, 35083, 32833, 30003, 27555, 27726, 30241, 32202, 32807, 33330, 33377, 32179, 31199, 32135, 34705, 37243, 38158, 37127, 34971, 32209, 29087, 27149, 28113, 30813, 32517, 32887, 33061, 32805, 31908, 31672, 33127, 35640, 37541, 37730, 36541, 34490, 31375, 28051, 27029, 29090, 31636, 32571, 32751, 33041, 32748, 31882, 31878, 33652, 36230, 37757, 37475, 35844, 33407, 30483, 27959, 27688, 29990, 32084, 32431, 32818, 33405, 32282, 30694, 31626, 34667, 37345, 38488, 37763, 35326, 32246, 29291, 27279, 27834, 30439, 32252, 32777, 33255, 33034, 31891, 31676, 33157, 35358, 37192, 37697, 36606, 34497, 31645, 28598], [33897, 33862, 33722, 33047, 32083, 32166, 33038, 33445, 33307, 32847, 31988, 31229, 31132, 31690, 32760, 33914, 34422, 34083, 33338, 32712, 32544, 32693, 32707, 32596, 32707, 32840, 32499, 31903, 31674, 31899, 32376, 33074, 33782, 34085, 33837, 33261, 32721, 32473, 32458, 32496, 32657, 32940, 32866, 32224, 31653, 31734, 32294, 32906, 33389, 33730, 33823, 33494, 32877, 32465, 32526, 32864, 33087, 32977, 32782, 32560, 31835, 31046, 31314, 32235, 32931, 33804, 34705, 34598, 33685, 32815, 32309, 32473, 32856, 32305, 31388, 31647, 32555, 32744, 32508, 32620, 32987, 33314, 33485, 33523, 33533, 33221, 32488, 32178, 32536, 32675, 32633, 32990, 33045, 32288, 31616, 31651, 32231, 33071, 33690, 33921], [36494, 29533, 28677, 31252, 31487, 32017, 34681, 34959, 30747, 25162, 22686, 25362, 30871, 36335, 41543, 45374, 43458, 35074, 28124, 28286, 30808, 31618, 32963, 34549, 33111, 28421, 23627, 23159, 28085, 34177, 38610, 42697, 44989, 40544, 31427, 27132, 29567, 31732, 32212, 34229, 35366, 31794, 25452, 21597, 23554, 29773, 36092, 41031, 45130, 45398, 38223, 28850, 26248, 29200, 31305, 32840, 35210, 35056, 30575, 24623, 21719, 24649, 31462, 37635, 41892, 44981, 43680, 35769, 28416, 28078, 30288, 31277, 33507, 35261, 32494, 26923, 22859, 23338, 28567, 34820, 39214, 42732, 44734, 40922, 32161, 27051, 28781, 31172, 31661, 33231, 35015, 33217, 27610, 22633, 23092, 28553, 34942, 40445, 44866, 45423], [37889, 37961, 36620, 35585, 34899, 34771, 35226, 35066, 33755, 31834, 29439, 27088, 26093, 26860, 28890, 31965, 35472, 37697, 37458, 35718, 34397, 34243, 34921, 35966, 36299, 34487, 30914, 27801, 26376, 26231, 27168, 29473, 32878, 36284, 37918, 36708, 34563, 34337, 35297, 35441, 35627, 36014, 34108, 30121, 27288, 26284, 25925, 26913, 30025, 34056, 37169, 37844, 36220, 34829, 35150, 35739, 35617, 35416, 34796, 32635, 29383, 26790, 25893, 26544, 28464, 31646, 35375, 37594, 36894, 34928, 34207, 34590, 35047, 35907, 36684, 35570, 32328, 28695, 26297, 25766, 26850, 28974, 32136, 35677, 37098, 35624, 34217, 34622, 35360, 35861, 36679, 36770, 34902, 31429, 27518, 24893, 25011, 27214, 30046, 33493]], "framecount": 10.0, "time": 1489540232064}
{"dataframe": [[32727, 32328, 34367, 36012, 34923, 33385, 33315, 33668, 33236, 32107, 30894, 29822, 28997, 29441, 31741, 34438, 36000, 35918, 34129, 32407, 32832, 33878, 33590, 33511, 34214, 33408, 31167, 29862, 29789, 30178, 31071, 32182, 33351, 34709, 35318, 34676, 33974, 33775, 33597, 33624, 33777, 33152, 31791, 30486, 29601, 29568, 30648, 32110, 33274, 34343, 35170, 35008, 34193, 33696, 33250, 32605, 33014, 34541, 34624, 32254, 29721, 28519, 28250, 29215, 31911, 35042, 36557, 36220, 35352, 34438, 33549, 33554, 33836, 32467, 30534, 30539, 31284, 30835, 30690, 31831, 32494, 32529, 33828, 35825, 36020, 34257, 32478, 31794, 32002, 32636, 33563, 34428, 34113, 32080, 29611, 28543, 29556, 31832, 33977, 35328], [26365, 25961, 27496, 30598, 34151, 34003, 31138, 30413, 31791, 33103, 35415, 39710, 43184, 41417, 34457, 27732, 24650, 24684, 27711, 31802, 32812, 31566, 31994, 32986, 32180, 32285, 35602, 39291, 40444, 39178, 36035, 31620, 27467, 25234, 26116, 29370, 32119, 33063, 33301, 32939, 31586, 31047, 33335, 37397, 40218, 40040, 37302, 33527, 29969, 27094, 25873, 27676, 31128, 32972, 32759, 32147, 31336, 30334, 31263, 35733, 40632, 41122, 38569, 37482, 35462, 28802, 22875, 23317, 27042, 30526, 33376, 33444, 31472, 32895, 36902, 37438, 35823, 36691, 37818, 36073, 33170, 30462, 27782, 26423, 27351, 30021, 33255, 34728, 33868, 33352, 33005, 30632, 29855, 34656, 40427, 41262, 37964, 33593, 29384, 26305], [36547, 37794, 36393, 33020, 30608, 31523, 33997, 34931, 34131, 32275, 29604, 27689, 27789, 29281, 31712, 34945, 37399, 37353, 35334, 33445, 33036, 33640, 33809, 33173, 32822, 32667, 31107, 28667, 27883, 29129, 30902, 33024, 35684, 37297, 36454, 34493, 33604, 33648, 33369, 33029, 33276, 33279, 31902, 29586, 28062, 28329, 29831, 31854, 34339, 36759, 37463, 35659, 33259, 32639, 33702, 34687, 34211, 32761, 32121, 31448, 28554, 26268, 28223, 31461, 33068, 35348, 38239, 38152, 35327, 32936, 32004, 32337, 33554, 33988, 32703, 31078, 30117, 29286, 28800, 29887, 32537, 34980, 35745, 35317, 34858, 34280, 33385, 33127, 33550, 33402, 32929, 33165, 32925, 30770, 28272, 27828, 29534, 32096, 34570, 36417], [31628, 31303, 32181, 33114, 33420, 33314, 32719, 32000, 32063, 32970, 33949, 34322, 33942, 33264, 32680, 32000, 31359, 31464, 32235, 32818, 32958, 32900, 32723, 32555, 32596, 32869, 33307, 33774, 34021, 33807, 33106, 32234, 31647, 31548, 31845, 32280, 32624, 32857, 33021, 32999, 32737, 32546, 32878, 33586, 33952, 33752, 33429, 33027, 32180, 31286, 31328, 32274, 33005, 32957, 32485, 32108, 32395, 33201, 33328, 32915, 33609, 34761, 34236, 32754, 32087, 31628, 30923, 31299, 32670, 33294, 33079, 33077, 32954, 32316, 32184, 32932, 33613, 33967, 34249, 33833, 32476, 31392, 31438, 32035, 32479, 32673, 32711, 32732, 32794, 32777, 32663, 32606, 32806, 33360, 33977, 34163, 33726, 32831, 31880, 31300], [27249, 29695, 32622, 32984, 32157, 32531, 32819, 31989, 32117, 34345, 36936, 37917, 36981, 35083, 32833, 30003, 27555, 27726, 30241, 32202, 32807, 33330, 33377, 32179, 31199, 32135, 34705, 37243, 38158, 37127, 34971, 32209, 29087, 27149, 28113, 30813, 32517, 32887, 33061, 32805, 31908, 31672, 33127, 35640, 37541, 37730, 36541, 34490, 31375, 28051, 27029, 29090, 31636, 32571, 32751, 33041, 32748, 31882, 31878, 33652, 36230, 37757, 37475, 35844, 33407, 30483, 27959, 27688, 29990, 32084, 32431, 32818, 33405, 32282, 30694, 31626, 34667, 37345, 38488, 37763, 35326, 32246, 29291, 27279, 27834, 30439, 32252, 32777, 33255, 33034, 31891, 31676, 33157, 35358, 37192, 37697, 36606, 34497, 31645, 28598], [33897, 33862, 33722, 33047, 32083, 32166, 33038, 33445, 33307, 32847, 31988, 31229, 31132, 31690, 32760, 33914, 34422, 34083, 33338, 32712, 32544, 32693, 32707, 32596, 32707, 32840, 32499, 31903, 31674, 31899, 32376, 33074, 33782, 34085, 33837, 33261, 32721, 32473, 32458, 32496, 32657, 32940, 32866, 32224, 31653, 31734, 32294, 32906, 33389, 33730, 33823, 33494, 32877, 32465, 32526, 32864, 33087, 32977, 32782, 32560, 31835, 31046, 31314, 32235, 32931, 33804, 34705, 34598, 33685, 32815, 32309, 32473, 32856, 32305, 31388, 31647, 32555, 32744, 32508, 32620, 32987, 33314, 33485, 33523, 33533, 33221, 32488, 32178, 32536, 32675, 32633, 32990, 33045, 32288, 31616, 31651, 32231, 33071, 33690, 33921], [36494, 29533, 28677, 31252, 31487, 32017, 34681, 34959, 30747, 25162, 22686, 25362, 30871, 36335, 41543, 45374, 43458, 35074, 28124, 28286, 30808, 31618, 32963, 34549, 33111, 28421, 23627, 23159, 28085, 34177, 38610, 42697, 44989, 40544, 31427, 27132, 29567, 31732, 32212, 34229, 35366, 31794, 25452, 21597, 23554, 29773, 36092, 41031, 45130, 45398, 38223, 28850, 26248, 29200, 31305, 32840, 35210, 35056, 30575, 24623, 21719, 24649, 31462, 37635, 41892, 44981, 43680, 35769, 28416, 28078, 30288, 31277, 33507, 35261, 32494, 26923, 22859, 23338, 28567, 34820, 39214, 42732, 44734, 40922, 32161, 27051, 28781, 31172, 31661, 33231, 35015, 33217, 27610, 22633, 23092, 28553, 34942, 40445, 44866, 45423], [37889, 37961, 36620, 35585, 34899, 34771, 35226, 35066, 33755, 31834, 29439, 27088, 26093, 26860, 28890, 31965, 35472, 37697, 37458, 35718, 34397, 34243, 34921, 35966, 36299, 34487, 30914, 27801, 26376, 26231, 27168, 29473, 32878, 36284, 37918, 36708, 34563, 34337, 35297, 35441, 35627, 36014, 34108, 30121, 27288, 26284, 25925, 26913, 30025, 34056, 37169, 37844, 36220, 34829, 35150, 35739, 35617, 35416, 34796, 32635, 29383, 26790, 25893, 26544, 28464, 31646, 35375, 37594, 36894, 34928, 34207, 34590, 35047, 35907, 36684, 35570, 32328, 28695, 26297, 25766, 26850, 28974, 32136, 35677, 37098, 35624, 34217, 34622, 35360, 35861, 36679, 36770, 34902, 31429, 27518, 24893, 25011, 27214, 30046, 33493]], "framecount": 11.0, "time": 1489540232252}
{"dataframe": [[35730, 34980, 33308, 31453, 30788, 32411, 34861, 35796, 35211, 33584, 30719, 28362, 28582, 30272, 31704, 33376, 35351, 35733, 34229, 33179, 33191, 32841, 32751, 33857, 34441, 33631, 32727, 31705, 29964, 28841, 29507, 31227, 33060, 34508, 35217, 35598, 35822, 34897, 33032, 32174, 32685, 32877, 32049, 31029, 30477, 30448, 30652, 30865, 31686, 33833, 36330, 37047, 35373, 33022, 32045, 32634, 33106, 32497, 31965, 32012, 31361, 30478, 31437, 33137, 32574, 31150, 32566, 35344, 35319, 33147, 32413, 33340, 33804, 33798, 34157, 33827, 32365, 31195, 30488, 29420, 29067, 30744, 33428, 35342, 35627, 34529, 33649, 33973, 34121, 33210, 32875, 33972, 34320, 32161, 29245, 28073, 28755, 30357, 32318, 34107], [26077, 29050, 32444, 33829, 33779, 32869, 31027, 29478, 29868, 32964, 37763, 41269, 41185, 38043, 33654, 29161, 25641, 24954, 27448, 30641, 33055, 35154, 35490, 32807, 30073, 30447, 33458, 37193, 39775, 39633, 36923, 33071, 29002, 26054, 26355, 29198, 31158, 31895, 33501, 34763, 33553, 31581, 31371, 33224, 36583, 39894, 40299, 36940, 32215, 27912, 24765, 25167, 29531, 33530, 34328, 33443, 32461, 31852, 31793, 32352, 34640, 38490, 40503, 38793, 34998, 30542, 26747, 26008, 28430, 31060, 32084, 32429, 32630, 31614, 30410, 31993, 35595, 38012, 39342, 40309, 38781, 33965, 28053, 23598, 23734, 29031, 33534, 33032, 31745, 33249, 34249, 32025, 30471, 34088, 39776, 41475, 39210, 35741, 31077, 26246], [36852, 35374, 33312, 32566, 32936, 33363, 33917, 34438, 33854, 31833, 29338, 27638, 27570, 29355, 32443, 35544, 37232, 36898, 35330, 33882, 33017, 32523, 32560, 33399, 34463, 34030, 31083, 27836, 27382, 29226, 31012, 32653, 35233, 37763, 37567, 34378, 31981, 32781, 34067, 33383, 32512, 33128, 33541, 31791, 28714, 26964, 28197, 31431, 34485, 36437, 36963, 35671, 34017, 33625, 33349, 32626, 33157, 34326, 33659, 31535, 29827, 28837, 28310, 28706, 30849, 34480, 37341, 37407, 35518, 34038, 33725, 33592, 33305, 33425, 33467, 32382, 30505, 28875, 27995, 28358, 30177, 32803, 35628, 37847, 37804, 35414, 33244, 32741, 32718, 32603, 33136, 33930, 33293, 30520, 27542, 27065, 29012, 31433, 34137, 37464], [31315, 31958, 32903, 33384, 33093, 32621, 32451, 32441, 32538, 32983, 33683, 34151, 34090, 33462, 32430, 31605, 31549, 31989, 32416, 32854, 33126, 32697, 31988, 31938, 32397, 32967, 33935, 34790, 34453, 33383, 32622, 32031, 31419, 31252, 31780, 32773, 33501, 33273, 32565, 32275, 32287, 32338, 32857, 33792, 34371, 34238, 33520, 32517, 31689, 31315, 31606, 32570, 33265, 32988, 32620, 32768, 32558, 31854, 31872, 32886, 33885, 34350, 34537, 34375, 33419, 31919, 30830, 30731, 31426, 32297, 32866, 33183, 33380, 33206, 32652, 32382, 32859, 33655, 34133, 34159, 33762, 32817, 31592, 30911, 31210, 32007, 32638, 32988, 33160, 33001, 32556, 32374, 32835, 33753, 34511, 34411, 33520, 32587, 31786, 30960], [27305, 28889, 31417, 32566, 32641, 32676, 32417, 31894, 32125, 33775, 36380, 38134, 37480, 35441, 33649, 31285, 28005, 26818, 29350, 32318, 32746, 32040, 32230, 32694, 32382, 32306, 34235, 37472, 38921, 37304, 34589, 32258, 29670, 27207, 27180, 30015, 32886, 33593, 32898, 32275, 32047, 32187, 33165, 35286, 37545, 38077, 36339, 33682, 31239, 29030, 27768, 28784, 31233, 32760, 33039, 33050, 32551, 31441, 31233, 33111, 36087, 38171, 38364, 36700, 33659, 30296, 27917, 27564, 29287, 31443, 32540, 32942, 33057, 32546, 31849, 32063, 33932, 36827, 38407, 37344, 35024, 32615, 29825, 27655, 28068, 30446, 32333, 33002, 33041, 32424, 31501, 31522, 32933, 35125, 37299, 38294, 37147, 34470, 31684, 29286], [33919, 33381, 32426, 31960, 32176, 32555, 33020, 33556, 33587, 32832, 31962, 31575, 31584, 31921, 32577, 33282, 33832, 33982, 33561, 33044, 32804, 32540, 32322, 32623, 33117, 33059, 32495, 32001, 31800, 31870, 32273, 32840, 33251, 33537, 33734, 33622, 33346, 33194, 32891, 32240, 31824, 32125, 32714, 32895, 32545, 32040, 31884, 32354, 33132, 33664, 33765, 33520, 33145, 32926, 32862, 32770, 32581, 32304, 32204, 32472, 32608, 32349, 32268, 32470, 32557, 32825, 33461, 33695, 33309, 33065, 33087, 32941, 32841, 33005, 32861, 32158, 31674, 31844, 32086, 32116, 32347, 32930, 33682, 34309, 34186, 33238, 32549, 32647, 32665, 32231, 32169, 32791, 33149, 32520, 31663, 31602, 32136, 32711, 33398, 34124], [39049, 29832, 26273, 28707, 30894, 32176, 34740, 35733, 31775, 25205, 22042, 24972, 30870, 36443, 41433, 45070, 43748, 36010, 28377, 27509, 29951, 30894, 32573, 35318, 34745, 29884, 24336, 22547, 26384, 32915, 38311, 42294, 44663, 41632, 33043, 27274, 28741, 31338, 31881, 33524, 35168, 32959, 27610, 23249, 23491, 28239, 34113, 39208, 43606, 44992, 39764, 31026, 27293, 29452, 31167, 31888, 34333, 35478, 31857, 25724, 22140, 24254, 30378, 36155, 40357, 44152, 44451, 37373, 28779, 27293, 30241, 31624, 33065, 35688, 35356, 30097, 23466, 21233, 25279, 31528, 36555, 41315, 45484, 44214, 36023, 28795, 28775, 31272, 31674, 32503, 34124, 32615, 27138, 21902, 22015, 27725, 34557, 40070, 44888, 46897], [36899, 37787, 35933, 34378, 34659, 35576, 36168, 35973, 34274, 31749, 30329, 29694, 28008, 26701, 27933, 30020, 31917, 34447, 35450, 34133, 34827, 38900, 42339, 42417, 38748, 32298, 26479, 23104, 20725, 20618, 25250, 31620, 35788, 38233, 39547, 39543, 39690, 39843, 38407, 36119, 33081, 28003, 23141, 22010, 24200, 27793, 32132, 35979, 37948, 38634, 38527, 36490, 32946, 30739, 31102, 32183, 32702, 33732, 35354, 35208, 32532, 29908, 28951, 28640, 28827, 30389, 32733, 34572, 35231, 34706, 34083, 34583, 35842, 36625, 36535, 35410, 32606, 29136, 27547, 27733, 27615, 27768, 29867, 32926, 34963, 35670, 36161, 37267, 38202, 37904, 36901, 35499, 32498, 28195, 25315, 25095, 26087, 27845, 31771, 37137]], "framecount": 12.0, "time": 1489540232267}
{"dataframe": [[35619, 36731, 36419, 34566, 33000, 32619, 32442, 32294, 32627, 32447, 31210, 30394, 30593, 30707, 30860, 32194, 34281, 35658, 35874, 35421, 34590, 33280, 31633, 30526, 31017, 32846, 34305, 34251, 32891, 30620, 28406, 28390, 31358, 34997, 36614, 36042, 34705, 33544, 32835, 32695, 32996, 33298, 33225, 32754, 31786, 30095, 28564, 28847, 31209, 34525, 37006, 36574, 33854, 32258, 32680, 33355, 33948, 34308, 33442, 32141, 31552, 30820, 29737, 29720, 30942, 32470, 34083, 35176, 34715, 33674, 33758, 34236, 33936, 33706, 33888, 33311, 31914, 30696, 29770, 29085, 29344, 30933, 33348, 35515, 36301, 35547, 34185, 33241, 33197, 33615, 33605, 33219, 32992, 32220, 29945, 27568, 28006, 31389, 34462, 35510], [24608, 26953, 30605, 32898, 33210, 32558, 32119, 32049, 32029, 33089, 36343, 39660, 40022, 37886, 34919, 31009, 26704, 24721, 26510, 29840, 31830, 32574, 33715, 34898, 34332, 32632, 32711, 35169, 37695, 38895, 38388, 35204, 29914, 25664, 24932, 27374, 30971, 33609, 34317, 33560, 31991, 30732, 31911, 35388, 38224, 39560, 39866, 37104, 30766, 25293, 25049, 29101, 32339, 32306, 32007, 32765, 32006, 30376, 30929, 33331, 36280, 39306, 40205, 37997, 35184, 32342, 27917, 24669, 26465, 30568, 32526, 32937, 32996, 32008, 31142, 32038, 34254, 37093, 39526, 39713, 37524, 34080, 29560, 25522, 25403, 29059, 32312, 33273, 32968, 31694, 30466, 31109, 32609, 34212, 38003, 42260, 41635, 36442, 31520, 28062], [38878, 36134, 32369, 31794, 33162, 33676, 33823, 34028, 33236, 31581, 29806, 28306, 28105, 29759, 32136, 34293, 36381, 37652, 36616, 33940, 32093, 31932, 32529, 33565, 34779, 34452, 31622, 28305, 27047, 28092, 30306, 32916, 35556, 37468, 37412, 35386, 33342, 32588, 32469, 32534, 33234, 34057, 33411, 30924, 28404, 27657, 28934, 31902, 35269, 36358, 34660, 33244, 33834, 34610, 34383, 34227, 34451, 34081, 33033, 31589, 29422, 27502, 27876, 30195, 32109, 33333, 35299, 37222, 37063, 35292, 33579, 32431, 32276, 33178, 33797, 33202, 31636, 29546, 28043, 28419, 30299, 32460, 34681, 36657, 37012, 35445, 33631, 32771, 32719, 33255, 33871, 33949, 33426, 31583, 28449, 27015, 28609, 30450, 31921, 35092], [30870, 32105, 33433, 33547, 33038, 32715, 32357, 32068, 32339, 33012, 33706, 34235, 34277, 33657, 32736, 31919, 31321, 31212, 31870, 32799, 33220, 33166, 32982, 32493, 31894, 32164, 33426, 34494, 34650, 34078, 33024, 31977, 31489, 31398, 31518, 32092, 32806, 33054, 33002, 33046, 33008, 32675, 32576, 33318, 34167, 33947, 33074, 32445, 31973, 31881, 32453, 32746, 32351, 32199, 32455, 32579, 32710, 32861, 32726, 32846, 33659, 34257, 33903, 33170, 32665, 32297, 31955, 31771, 31801, 32025, 32544, 33147, 33170, 32616, 32343, 32663, 33226, 33909, 34404, 34093, 33144, 32309, 31732, 31247, 31238, 32019, 32988, 33394, 33293, 33015, 32575, 32155, 32247, 33068, 34050, 34231, 33677, 33367, 33105, 31982], [27689, 28121, 30388, 32321, 32988, 33131, 32753, 31842, 31768, 33440, 35930, 37723, 37969, 36563, 33873, 30547, 27734, 27158, 29307, 31878, 32761, 32882, 33195, 32694, 31519, 31688, 34019, 36996, 38483, 37637, 35261, 32445, 29610, 27519, 27764, 30316, 32558, 32971, 32816, 32852, 32375, 31647, 32096, 34397, 37202, 38221, 37029, 34987, 32568, 29589, 27302, 27540, 30023, 32407, 33318, 33405, 33147, 32241, 31498, 32643, 35448, 37607, 37896, 36679, 34104, 30774, 28336, 27807, 29109, 31350, 32784, 32733, 32413, 32333, 31965, 32137, 34010, 36562, 37982, 37852, 36291, 33258, 29663, 27336, 27526, 29664, 31750, 32691, 33128, 33308, 32645, 31777, 32377, 34682, 36954, 37590, 36666, 35040, 32717, 29536], [34221, 33456, 32612, 32380, 32518, 32637, 32731, 32808, 32848, 32764, 32320, 31726, 31667, 32292, 32975, 33308, 33539, 33810, 33766, 33217, 32586, 32343, 32395, 32507, 32743, 32946, 32734, 32289, 32042, 31904, 31876, 32432, 33457, 34086, 34039, 33760, 33317, 32593, 32062, 32164, 32653, 32967, 32783, 32333, 31947, 31596, 31673, 32725, 34008, 34384, 33884, 33070, 32419, 32297, 32513, 32735, 32998, 33172, 33015, 32622, 32129, 31707, 31748, 32214, 32622, 33057, 33807, 34234, 33760, 32990, 32530, 32303, 32371, 32743, 32954, 32792, 32501, 32184, 31897, 31945, 32371, 32874, 33439, 34020, 34035, 33294, 32481, 32145, 32338, 32891, 33170, 32850, 32704, 32800, 32133, 31259, 31584, 32504, 32948, 33493], [41746, 31742, 26132, 27752, 30435, 31712, 33682, 34563, 31500, 26198, 23076, 25011, 30637, 36276, 40549, 43939, 43950, 37389, 29124, 27340, 30200, 31423, 32160, 34442, 34758, 30738, 25095, 22730, 25884, 31708, 36683, 40789, 44149, 43073, 35687, 28817, 28706, 30981, 31225, 32430, 34910, 34066, 28836, 23395, 22553, 26798, 32655, 38287, 43723, 46147, 41408, 32069, 27146, 29107, 31449, 31958, 33637, 34944, 32233, 26451, 22198, 23436, 29371, 35622, 40199, 43883, 44671, 39047, 30678, 27699, 29784, 31002, 31659, 33931, 34649, 30892, 24968, 22064, 25087, 31585, 37387, 41658, 44977, 44144, 36304, 27862, 26792, 29831, 31299, 33061, 35483, 34222, 28953, 23901, 22772, 26597, 32971, 38492, 42434, 44697], [40236, 39099, 35734, 32593, 30385, 30029, 32454, 35754, 36682, 34928, 32584, 30521, 28449, 27375, 28654, 31479, 34098, 35533, 34885, 32634, 31623, 33106, 35236, 36878, 38107, 37776, 34923, 30877, 27476, 25315, 24877, 26806, 30612, 34786, 37395, 37101, 35160, 34177, 34702, 35798, 36849, 36889, 34956, 31560, 28111, 25781, 25372, 26964, 29881, 33508, 36826, 37800, 35913, 33621, 32968, 33649, 35074, 36815, 37476, 35706, 31945, 28058, 25497, 24811, 26283, 29526, 33186, 35857, 36928, 36641, 35342, 34164, 35663, 39150, 39894, 37170, 33376, 27592, 21124, 19211, 22001, 26598, 33535, 41352, 44778, 42501, 38008, 33964, 31344, 30707, 31518, 32494, 32518, 31074, 29202, 28387, 28758, 30354, 32967, 34667]], "framecount": 13.0, "time": 1489540232392}
{"dataframe": [[35872, 35951, 34678, 32708, 31881, 32304, 32602, 32520, 33081, 33843, 33100, 31227, 30008, 29813, 30573, 32534, 34660, 35526, 35079, 33952, 32982, 32798, 32783, 32614, 33285, 34238, 33337, 31026, 29825, 30125, 30723, 31607, 33118, 34650, 35436, 35167, 34106, 32941, 32125, 31865, 32368, 33379, 34265, 34364, 33077, 30913, 29284, 28605, 29264, 32207, 35642, 36315, 34854, 33982, 33814, 33560, 33760, 34184, 33565, 32166, 31178, 30468, 29523, 29013, 29858, 32114, 35037, 37148, 36972, 34749, 32422, 31510, 31980, 32984, 33855, 34172, 33474, 31786, 29919, 28764, 29131, 31459, 34701, 36636, 35823, 33375, 32046, 32425, 32712, 32803, 33847, 34872, 34490, 33229, 31752, 30172, 29056, 28949, 30171, 32657], [24804, 23331, 26438, 32894, 37195, 36181, 32994, 31268, 30445, 30461, 33629, 38678, 40893, 39214, 36274, 32792, 28199, 25072, 26501, 30279, 31868, 31188, 31229, 32627, 33502, 33278, 34060, 37081, 39817, 39420, 36655, 33528, 30029, 26323, 24959, 27245, 30692, 33014, 34428, 34926, 33863, 31760, 30111, 30979, 35491, 40898, 42638, 39344, 32678, 25994, 23992, 27396, 30838, 31273, 31614, 33392, 33983, 32184, 30611, 31896, 35389, 38412, 39621, 39265, 36938, 32309, 27129, 24480, 26167, 30136, 32502, 32980, 33493, 33422, 32187, 31557, 32317, 34417, 38013, 40757, 40004, 36541, 31407, 25597, 23484, 27035, 31056, 32226, 33168, 34118, 32885, 31048, 31065, 33218, 37182, 40637, 40714, 38159, 34128, 28313], [38327, 38258, 35780, 33750, 32648, 31882, 31894, 32950, 33853, 33090, 30624, 28331, 28358, 30436, 32030, 32539, 34344, 37101, 36987, 34245, 33035, 33759, 34113, 34068, 33797, 32293, 30169, 28846, 28301, 28513, 30118, 32699, 35218, 37061, 37231, 35473, 33823, 33561, 33200, 32090, 31917, 33108, 33601, 31997, 29442, 27964, 28481, 30583, 33240, 35562, 36844, 36372, 34783, 34141, 34262, 32921, 31326, 32293, 33890, 32874, 30444, 29024, 28946, 29994, 31542, 32906, 34868, 37004, 36664, 34266, 33099, 33306, 33310, 33523, 33623, 32448, 31074, 30452, 29890, 29613, 29914, 30372, 32160, 35689, 37717, 36409, 34473, 33830, 33628, 33604, 33631, 33021, 32257, 31228, 28938, 27244, 28405, 30715, 32582, 35293], [30835, 31109, 32188, 32670, 32740, 33135, 33439, 33038, 32482, 32676, 33445, 33877, 33626, 33106, 32832, 32727, 32160, 31408, 31662, 32641, 32982, 32777, 32690, 32468, 32253, 32648, 33392, 33940, 34178, 33986, 33395, 32686, 31899, 31221, 31305, 32121, 32699, 32731, 32864, 33164, 33022, 32543, 32629, 33449, 33987, 33720, 33288, 32986, 32544, 32091, 31777, 31681, 32014, 32399, 32556, 33058, 33637, 33212, 32325, 32447, 33395, 33924, 33688, 33189, 32896, 32705, 32123, 31470, 31703, 32514, 32814, 32718, 32717, 32586, 32538, 32995, 33496, 33634, 33527, 33244, 33136, 33309, 32919, 31859, 31394, 31856, 32320, 32525, 32625, 32440, 32435, 33052, 33503, 33482, 33760, 34104, 33677, 32890, 32404, 31896], [27295, 28266, 31064, 32338, 32239, 32694, 32921, 32021, 31651, 33052, 35465, 37584, 38180, 36803, 34333, 31520, 28543, 26901, 28325, 31296, 32916, 33176, 33199, 32623, 31603, 31546, 33152, 35804, 38011, 38314, 36551, 33642, 30426, 27864, 27423, 29348, 31675, 32777, 32993, 32783, 32094, 31632, 32484, 34710, 36970, 37823, 37113, 35327, 32743, 29835, 27685, 27741, 30030, 32276, 32955, 32910, 32731, 32118, 31687, 32655, 35104, 37453, 37982, 36710, 34657, 32037, 29045, 27365, 28406, 30827, 32346, 32797, 33009, 32738, 31873, 31713, 33396, 36077, 37815, 37788, 36345, 33768, 30594, 28136, 27685, 29330, 31550, 32720, 32842, 32643, 32257, 31922, 32410, 34104, 36382, 37947, 37726, 35682, 32722, 29794], [34385, 34564, 33642, 32452, 31810, 31938, 32510, 32973, 33097, 32956, 32506, 31861, 31578, 31979, 32670, 33248, 33756, 33991, 33514, 32802, 32767, 33089, 32891, 32469, 32485, 32586, 32329, 32004, 31921, 32045, 32349, 32878, 33508, 33951, 33999, 33596, 32984, 32594, 32383, 32098, 32137, 32777, 33277, 32976, 32185, 31615, 31668, 32218, 33049, 33991, 34357, 33643, 32691, 32520, 32748, 32548, 32262, 32675, 33355, 33260, 32490, 31890, 31654, 31671, 32133, 32997, 33874, 34332, 33963, 33038, 32452, 32436, 32576, 32715, 32785, 32782, 32819, 32535, 31840, 31606, 32020, 32379, 32913, 33980, 34533, 33847, 32896, 32504, 32409, 32490, 32776, 32905, 32771, 32459, 31923, 31647, 32041, 32510, 32809, 33514], [42099, 33995, 27683, 27964, 30093, 31080, 33388, 35639, 33795, 28227, 23259, 23257, 28407, 34514, 38916, 42549, 44295, 39987, 31549, 27541, 29583, 31640, 32557, 34360, 34662, 30967, 25317, 22239, 24604, 30595, 36323, 40685, 44084, 43798, 37211, 29715, 28511, 30844, 31353, 31869, 33794, 33728, 29904, 24711, 22691, 26213, 32331, 37425, 41778, 45225, 43190, 34464, 27536, 28375, 31238, 31462, 32267, 34254, 33348, 28524, 23740, 23734, 28601, 34119, 38170, 42096, 44685, 41099, 32354, 27493, 29356, 31304, 31515, 33410, 34876, 31784, 26036, 22877, 24837, 30233, 35813, 40138, 43637, 44224, 38147, 29471, 27144, 30147, 31692, 32529, 34777, 34779, 30270, 24384, 22054, 25419, 31644, 37052, 41569, 45239], [34881, 35437, 35887, 34386, 32632, 33016, 34416, 35272, 35590, 34684, 32111, 29510, 28032, 27223, 27483, 29652, 32874, 35301, 35780, 34784, 34170, 35006, 36454, 37389, 37325, 35858, 32828, 28992, 25929, 24850, 25634, 27557, 30606, 34751, 38108, 38447, 36643, 35391, 35308, 35416, 35493, 35521, 34628, 32077, 28595, 25950, 25204, 26164, 28585, 32484, 36533, 38139, 36768, 34831, 34115, 34393, 35297, 36401, 36531, 34838, 31651, 28259, 25988, 25327, 26307, 28987, 32894, 36490, 37848, 36744, 35250, 34898, 35278, 35929, 36524, 35909, 33401, 29885, 26867, 25306, 25430, 27238, 30644, 34781, 37646, 37700, 35896, 34528, 34507, 35242, 35938, 35994, 35054, 32864, 29612, 26675, 25554, 26304, 28292, 31457]], "framecount": 14.0, "time": 1489540232471}
{"dataframe": [[33866, 36139, 35738, 33914, 33323, 33898, 34213, 34104, 33724, 32849, 31673, 30391, 29078, 28614, 29772, 31833, 33930, 36131, 37531, 36311, 33384, 31754, 31842, 32222, 32995, 34092, 33814, 31914, 30376, 30092, 30341, 31037, 32236, 33244, 34090, 35003, 35073, 34237, 33738, 33620, 33280, 33199, 33437, 32868, 31205, 29545, 28871, 29488, 31115, 33259, 35738, 37403, 36211, 33101, 31464, 31653, 32008, 33096, 34992, 35210, 33081, 30915, 29937, 29529, 29668, 30847, 32816, 34860, 36041, 35504, 33842, 32986, 33440, 33646, 33189, 33141, 32966, 31613, 30268, 29917, 29801, 30390, 32646, 35074, 35890, 35024, 33273, 32434, 33479, 34463, 33848, 32992, 32912, 32627, 31642, 30714, 30186, 29967, 30379, 31705], [27769, 24839, 27140, 31000, 32352, 32421, 32578, 31979, 31115, 31674, 34289, 38251, 41290, 40936, 37496, 33207, 28673, 23645, 21114, 25309, 33886, 38996, 37755, 33983, 30780, 29029, 30044, 33818, 37715, 39601, 39091, 36101, 31723, 28387, 27371, 28594, 31049, 32292, 31455, 31056, 32010, 31834, 30605, 32005, 36640, 40681, 41608, 39770, 35529, 29429, 23853, 22548, 27273, 33734, 35667, 33639, 32177, 31526, 30343, 30644, 34114, 38379, 40306, 39588, 37321, 33844, 29261, 25252, 24594, 27486, 31159, 33855, 35316, 34815, 32477, 30336, 30555, 33796, 38194, 40417, 39334, 36524, 32648, 27350, 23654, 26204, 32585, 34945, 32202, 30291, 31423, 32741, 32799, 33169, 35047, 37370, 38691, 38575, 36954, 33689], [37196, 38082, 35880, 33346, 32410, 32481, 32860, 33619, 34282, 33698, 31452, 28821, 27663, 28411, 30219, 32596, 35464, 37808, 37846, 35443, 32775, 31425, 31432, 32923, 34812, 34623, 32487, 30645, 29308, 28137, 28688, 31453, 34433, 36116, 36252, 34891, 33316, 33067, 33532, 33585, 33731, 34333, 34325, 32687, 29832, 27593, 27430, 28908, 31223, 34281, 37006, 37528, 35867, 33967, 33159, 33284, 33643, 33652, 33309, 32775, 31288, 28840, 27645, 28726, 30390, 32108, 34992, 37786, 37878, 35987, 34360, 32569, 30627, 30982, 33334, 34642, 34132, 32186, 29076, 27337, 28794, 31152, 32764, 35069, 37304, 36606, 34078, 33132, 33609, 33624, 33444, 33613, 33251, 31831, 30109, 29108, 28938, 29049, 29927, 32855], [31574, 31470, 32116, 32886, 33144, 33018, 32823, 32527, 32246, 32350, 32940, 33746, 34300, 34232, 33568, 32517, 31431, 31090, 31883, 32766, 32770, 32629, 32901, 32723, 32180, 32447, 33232, 33599, 33864, 34175, 33799, 32744, 31798, 31360, 31567, 32330, 32907, 32919, 32904, 32950, 32608, 32178, 32280, 32821, 33436, 33962, 34207, 33917, 33046, 32015, 31534, 31768, 32176, 32403, 32484, 32419, 32356, 32590, 33003, 33266, 33518, 33938, 34097, 33652, 33004, 32446, 31670, 31024, 31474, 32491, 32811, 32936, 33508, 33454, 32525, 32071, 32406, 33005, 33913, 34447, 33643, 32481, 32194, 32105, 31773, 32057, 32797, 32904, 32573, 32552, 32530, 32255, 32385, 33120, 33770, 33944, 33924, 33885, 33409, 32197], [28260, 27981, 29730, 31947, 32738, 32712, 32933, 32572, 31578, 31910, 34296, 36890, 37873, 37167, 35351, 32630, 29496, 27698, 28803, 31252, 32088, 31739, 32231, 32771, 32153, 31697, 32862, 35352, 37674, 38231, 36854, 34595, 31804, 28550, 26663, 28075, 31228, 33016, 33239, 33202, 32788, 31910, 31670, 32960, 35482, 37716, 38043, 36314, 33602, 30820, 28618, 28042, 29416, 31207, 32116, 32641, 33016, 32619, 31957, 32356, 34103, 36302, 37710, 37469, 35659, 32980, 29951, 27552, 27669, 30381, 32717, 32860, 32349, 32387, 32226, 31900, 32761, 35030, 37151, 37794, 36864, 34696, 31831, 29171, 27809, 28604, 30832, 32479, 32942, 32932, 32379, 31434, 31448, 33178, 35904, 38112, 38409, 36637, 33753, 30657], [33890, 34188, 33596, 32727, 32429, 32576, 32643, 32776, 33114, 33137, 32586, 31883, 31502, 31658, 32220, 32818, 33420, 34240, 34771, 34084, 32478, 31330, 31377, 32318, 33349, 33652, 33181, 32567, 32128, 31823, 31819, 32283, 32975, 33491, 33579, 33285, 32994, 32992, 33101, 33079, 32964, 32856, 32714, 32376, 31877, 31631, 31787, 32021, 32434, 33451, 34558, 34594, 33450, 32297, 32040, 32396, 32721, 32901, 33071, 33070, 32627, 31938, 31585, 31806, 32323, 32912, 33567, 34049, 33974, 33469, 32921, 32333, 31862, 32029, 32718, 33295, 33465, 33038, 32072, 31432, 31751, 32431, 32871, 33393, 33959, 33788, 33021, 32700, 32904, 32875, 32509, 32348, 32636, 32975, 32838, 32278, 31827, 31796, 32090, 32662], [43608, 37259, 29211, 27520, 30307, 31749, 32861, 34969, 34481, 29484, 23515, 21986, 26269, 32710, 38173, 42571, 45104, 42349, 34273, 28199, 28510, 30174, 30417, 32575, 35352, 33730, 28142, 23560, 23671, 28265, 34290, 39475, 43565, 44760, 39486, 30317, 26140, 28769, 31800, 33371, 35386, 35809, 32083, 25676, 21356, 23312, 29772, 35622, 40193, 44900, 45720, 38463, 29228, 26869, 29384, 30884, 32286, 34737, 34806, 30521, 24497, 21961, 25652, 32289, 37637, 41835, 45337, 43797, 35081, 27430, 27657, 30101, 30287, 32194, 35372, 34431, 29323, 24328, 23226, 27335, 33886, 39108, 42658, 44307, 40310, 31269, 26235, 29016, 32646, 33458, 34342, 34863, 31976, 26390, 22455, 23820, 29371, 35072, 39496, 43418], [35763, 38478, 38008, 35538, 33988, 34019, 34857, 36113, 36706, 35515, 32781, 29345, 26420, 25421, 26449, 28373, 30802, 34220, 37580, 38393, 36662, 35169, 35171, 35618, 35722, 35265, 33676, 30734, 27447, 25319, 25136, 26746, 29737, 33809, 37719, 39105, 37452, 35312, 34672, 34844, 34788, 34596, 34212, 32713, 29891, 27403, 26687, 27191, 28382, 31033, 34856, 37479, 37400, 35895, 34755, 34231, 34257, 35117, 36033, 35324, 32452, 28869, 26508, 25887, 26638, 28824, 32269, 35767, 37660, 37156, 35482, 34554, 34625, 34995, 35531, 35757, 34498, 31597, 28431, 26333, 25684, 26516, 28877, 32463, 36102, 37971, 37445, 36034, 35242, 35132, 35376, 35577, 34931, 32978, 30279, 27864, 26193, 25521, 26772, 30241]], "framecount": 15.0, "time": 1489540232564}
{"dataframe": [[33866, 36139, 35738, 33914, 33323, 33898, 34213, 34104, 33724, 32849, 31673, 30391, 29078, 28614, 29772, 31833, 33930, 36131, 37531, 36311, 33384, 31754, 31842, 32222, 32995, 34092, 33814, 31914, 30376, 30092, 30341, 31037, 32236, 33244, 34090, 35003, 35073, 34237, 33738, 33620, 33280, 33199, 33437, 32868, 31205, 29545, 28871, 29488, 31115, 33259, 35738, 37403, 36211, 33101, 31464, 31653, 32008, 33096, 34992, 35210, 33081, 30915, 29937, 29529, 29668, 30847, 32816, 34860, 36041, 35504, 33842, 32986, 33440, 33646, 33189, 33141, 32966, 31613, 30268, 29917, 29801, 30390, 32646, 35074, 35890, 35024, 33273, 32434, 33479, 34463, 33848, 32992, 32912, 32627, 31642, 30714, 30186, 29967, 30379, 31705], [27769, 24839, 27140, 31000, 32352, 32421, 32578, 31979, 31115, 31674, 34289, 38251, 41290, 40936, 37496, 33207, 28673, 23645, 21114, 25309, 33886, 38996, 37755, 33983, 30780, 29029, 30044, 33818, 37715, 39601, 39091, 36101, 31723, 28387, 27371, 28594, 31049, 32292, 31455, 31056, 32010, 31834, 30605, 32005, 36640, 40681, 41608, 39770, 35529, 29429, 23853, 22548, 27273, 33734, 35667, 33639, 32177, 31526, 30343, 30644, 34114, 38379, 40306, 39588, 37321, 33844, 29261, 25252, 24594, 27486, 31159, 33855, 35316, 34815, 32477, 30336, 30555, 33796, 38194, 40417, 39334, 36524, 32648, 27350, 23654, 26204, 32585, 34945, 32202, 30291, 31423, 32741, 32799, 33169, 35047, 37370, 38691, 38575, 36954, 33689], [37196, 38082, 35880, 33346, 32410, 32481, 32860, 33619, 34282, 33698, 31452, 28821, 27663, 28411, 30219, 32596, 35464, 37808, 37846, 35443, 32775, 31425, 31432, 32923, 34812, 34623, 32487, 30645, 29308, 28137, 28688, 31453, 34433, 36116, 36252, 34891, 33316, 33067, 33532, 33585, 33731, 34333, 34325, 32687, 29832, 27593, 27430, 28908, 31223, 34281, 37006, 37528, 35867, 33967, 33159, 33284, 33643, 33652, 33309, 32775, 31288, 28840, 27645, 28726, 30390, 32108, 34992, 37786, 37878, 35987, 34360, 32569, 30627, 30982, 33334, 34642, 34132, 32186, 29076, 27337, 28794, 31152, 32764, 35069, 37304, 36606, 34078, 33132, 33609, 33624, 33444, 33613, 33251, 31831, 30109, 29108, 28938, 29049, 29927, 32855], [31574, 31470, 32116, 32886, 33144, 33018, 32823, 32527, 32246, 32350, 32940, 33746, 34300, 34232, 33568, 32517, 31431, 31090, 31883, 32766, 32770, 32629, 32901, 32723, 32180, 32447, 33232, 33599, 33864, 34175, 33799, 32744, 31798, 31360, 31567, 32330, 32907, 32919, 32904, 32950, 32608, 32178, 32280, 32821, 33436, 33962, 34207, 33917, 33046, 32015, 31534, 31768, 32176, 32403, 32484, 32419, 32356, 32590, 33003, 33266, 33518, 33938, 34097, 33652, 33004, 32446, 31670, 31024, 31474, 32491, 32811, 32936, 33508, 33454, 32525, 32071, 32406, 33005, 33913, 34447, 33643, 32481, 32194, 32105, 31773, 32057, 32797, 32904, 32573, 32552, 32530, 32255, 32385, 33120, 33770, 33944, 33924, 33885, 33409, 32197], [28260, 27981, 29730, 31947, 32738, 32712, 32933, 32572, 31578, 31910, 34296, 36890, 37873, 37167, 35351, 32630, 29496, 27698, 28803, 31252, 32088, 31739, 32231, 32771, 32153, 31697, 32862, 35352, 37674, 38231, 36854, 34595, 31804, 28550, 26663, 28075, 31228, 33016, 33239, 33202, 32788, 31910, 31670, 32960, 35482, 37716, 38043, 36314, 33602, 30820, 28618, 28042, 29416, 31207, 32116, 32641, 33016, 32619, 31957, 32356, 34103, 36302, 37710, 37469, 35659, 32980, 29951, 27552, 27669, 30381, 32717, 32860, 32349, 32387, 32226, 31900, 32761, 35030, 37151, 37794, 36864, 34696, 31831, 29171, 27809, 28604, 30832, 32479, 32942, 32932, 32379, 31434, 31448, 33178, 35904, 38112, 38409, 36637, 33753, 30657], [33890, 34188, 33596, 32727, 32429, 32576, 32643, 32776, 33114, 33137, 32586, 31883, 31502, 31658, 32220, 32818, 33420, 34240, 34771, 34084, 32478, 31330, 31377, 32318, 33349, 33652, 33181, 32567, 32128, 31823, 31819, 32283, 32975, 33491, 33579, 33285, 32994, 32992, 33101, 33079, 32964, 32856, 32714, 32376, 31877, 31631, 31787, 32021, 32434, 33451, 34558, 34594, 33450, 32297, 32040, 32396, 32721, 32901, 33071, 33070, 32627, 31938, 31585, 31806, 32323, 32912, 33567, 34049, 33974, 33469, 32921, 32333, 31862, 32029, 32718, 33295, 33465, 33038, 32072, 31432, 31751, 32431, 32871, 33393, 33959, 33788, 33021, 32700, 32904, 32875, 32509, 32348, 32636, 32975, 32838, 32278, 31827, 31796, 32090, 32662], [43608, 37259, 29211, 27520, 30307, 31749, 32861, 34969, 34481, 29484, 23515, 21986, 26269, 32710, 38173, 42571, 45104, 42349, 34273, 28199, 28510, 30174, 30417, 32575, 35352, 33730, 28142, 23560, 23671, 28265, 34290, 39475, 43565, 44760, 39486, 30317, 26140, 28769, 31800, 33371, 35386, 35809, 32083, 25676, 21356, 23312, 29772, 35622, 40193, 44900, 45720, 38463, 29228, 26869, 29384, 30884, 32286, 34737, 34806, 30521, 24497, 21961, 25652, 32289, 37637, 41835, 45337, 43797, 35081, 27430, 27657, 30101, 30287, 32194, 35372, 34431, 29323, 24328, 23226, 27335, 33886, 39108, 42658, 44307, 40310, 31269, 26235, 29016, 32646, 33458, 34342, 34863, 31976, 26390, 22455, 23820, 29371, 35072, 39496, 43418], [35763, 38478, 38008, 35538, 33988, 34019, 34857, 36113, 36706, 35515, 32781, 29345, 26420, 25421, 26449, 28373, 30802, 34220, 37580, 38393, 36662, 35169, 35171, 35618, 35722, 35265, 33676, 30734, 27447, 25319, 25136, 26746, 29737, 33809, 37719, 39105, 37452, 35312, 34672, 34844, 34788, 34596, 34212, 32713, 29891, 27403, 26687, 27191, 28382, 31033, 34856, 37479, 37400, 35895, 34755, 34231, 34257, 35117, 36033, 35324, 32452, 28869, 26508, 25887, 26638, 28824, 32269, 35767, 37660, 37156, 35482, 34554, 34625, 34995, 35531, 35757, 34498, 31597, 28431, 26333, 25684, 26516, 28877, 32463, 36102, 37971, 37445, 36034, 35242, 35132, 35376, 35577, 34931, 32978, 30279, 27864, 26193, 25521, 26772, 30241]], "framecount": 16.0, "time": 1489540232752}
{"dataframe": [[33855, 36057, 36483, 34584, 32781, 32750, 33244, 33411, 33586, 33359, 32606, 31747, 30369, 28833, 28962, 31106, 33679, 35477, 36001, 35151, 33985, 33679, 33497, 32404, 31735, 32799, 33737, 32694, 31081, 30440, 30326, 30767, 32186, 33693, 34463, 34465, 33810, 33427, 34008, 34343, 33610, 33080, 33527, 33474, 31312, 28417, 28183, 30756, 32673, 33109, 34291, 35768, 35295, 33697, 33095, 33289, 33374, 33465, 33462, 32983, 32128, 30991, 29846, 29540, 30419, 31954, 33694, 35201, 35594, 34675, 33589, 33144, 32972, 32899, 33215, 33590, 33213, 31878, 30637, 30769, 31473, 31195, 31010, 32266, 33716, 34560, 35084, 34495, 33157, 33093, 34247, 34885, 34287, 32573, 30605, 29548, 29257, 29368, 30519, 32618], [28755, 24311, 24605, 29460, 33195, 33392, 32593, 31857, 31087, 31969, 34966, 38007, 39545, 39349, 37438, 34084, 29754, 25745, 24827, 27971, 31569, 32483, 32615, 33738, 33638, 31732, 31613, 34786, 38116, 39155, 38463, 36389, 32606, 28182, 25554, 26755, 30513, 32842, 32782, 32447, 31707, 30085, 30124, 33348, 38104, 41854, 41795, 37390, 32548, 29870, 27316, 25034, 26522, 30674, 32990, 33297, 33507, 33006, 31702, 31573, 33656, 37026, 39669, 39751, 37267, 33577, 29479, 25860, 25166, 28321, 31984, 33235, 33321, 33512, 32762, 31156, 30911, 33502, 37363, 39411, 39195, 38145, 35406, 29741, 24247, 24044, 28941, 33053, 33425, 32718, 32167, 30350, 29088, 32116, 37994, 41402, 40814, 38647, 36054, 32391], [36790, 38216, 36172, 33905, 33516, 33716, 33743, 33999, 33663, 31997, 29879, 28400, 28248, 29523, 31082, 32314, 34382, 37056, 37626, 35555, 33685, 33267, 32921, 32488, 32907, 33442, 32662, 30713, 28957, 28516, 29485, 31119, 33056, 35518, 37363, 36639, 34244, 32831, 32544, 32550, 33424, 34539, 34110, 32360, 30507, 28831, 27792, 28328, 30593, 33764, 36616, 37787, 36647, 34407, 32993, 32854, 33170, 33364, 33393, 33081, 31812, 29643, 28081, 28327, 29915, 32084, 34667, 36900, 37260, 35583, 33757, 33124, 33042, 32837, 32887, 33296, 33273, 32153, 30376, 28697, 27467, 27886, 31255, 36076, 38886, 37999, 35117, 33148, 32892, 33210, 33440, 33570, 33271, 31983, 29814, 28268, 28595, 29855, 30932, 32793], [31099, 31287, 32301, 32688, 32454, 32487, 32564, 32376, 32541, 33177, 33804, 34266, 34276, 33633, 32916, 32458, 31804, 31101, 31249, 32160, 32798, 32989, 33172, 33100, 32650, 32498, 32946, 33568, 33903, 33739, 33283, 32972, 32640, 31845, 31167, 31500, 32393, 32957, 33224, 33280, 32920, 32464, 32381, 32706, 33265, 33722, 33846, 33722, 33256, 32378, 31604, 31448, 31860, 32492, 32943, 32963, 32727, 32607, 32583, 32505, 32812, 33713, 34343, 34089, 33439, 32769, 31938, 31274, 31423, 32155, 32605, 32666, 32832, 33056, 33014, 32805, 32717, 32925, 33385, 33857, 34110, 33780, 32648, 31395, 31029, 31618, 32421, 32914, 32991, 32715, 32518, 32757, 33019, 33023, 33250, 33745, 33868, 33502, 33009, 32400], [28216, 27684, 29334, 31352, 32174, 32479, 32886, 32675, 32024, 32313, 34105, 36517, 37977, 37534, 35611, 32951, 29908, 27592, 27648, 29823, 32013, 33116, 33393, 32910, 31993, 31633, 32459, 34465, 36847, 38029, 37266, 35191, 32363, 29270, 27414, 28117, 30508, 32438, 33034, 32962, 32711, 32116, 31607, 32543, 35207, 37597, 37911, 36652, 34708, 31843, 28645, 27305, 28783, 31168, 32399, 32685, 32818, 32525, 31838, 31896, 33569, 36199, 38022, 37903, 36167, 33561, 30502, 27916, 27471, 29388, 31512, 32446, 32961, 33235, 32546, 31653, 32224, 34556, 37205, 38275, 37078, 34596, 31995, 29525, 27812, 28277, 30584, 32419, 32906, 32993, 32909, 32300, 31745, 32405, 34626, 37111, 38024, 36947, 34623, 31573], [33594, 34364, 34086, 33065, 32487, 32520, 32605, 32676, 32772, 32756, 32641, 32380, 31976, 31830, 32166, 32688, 33240, 33817, 33947, 33373, 32849, 32834, 32708, 32391, 32585, 33029, 32825, 32134, 31780, 31938, 32265, 32588, 32988, 33560, 34039, 33842, 33096, 32649, 32550, 32290, 32263, 32862, 33340, 33065, 32306, 31599, 31447, 31939, 32622, 33315, 34049, 34319, 33783, 33005, 32522, 32309, 32350, 32580, 32727, 32779, 32748, 32364, 31807, 31723, 32223, 32886, 33473, 33896, 33940, 33514, 32920, 32564, 32498, 32505, 32503, 32608, 32789, 32780, 32505, 32130, 31708, 31582, 32374, 33761, 34582, 34295, 33271, 32368, 32278, 32673, 32834, 32893, 33080, 32834, 32020, 31499, 31671, 32096, 32542, 33075], [44519, 39036, 30504, 27324, 29872, 32172, 33264, 34773, 34378, 29682, 23343, 21212, 25453, 32152, 37622, 42072, 45377, 43827, 35750, 28076, 27690, 30683, 31555, 32296, 34133, 33517, 28823, 23447, 22683, 27649, 34052, 38922, 43098, 45503, 41639, 32199, 26194, 27847, 30890, 31986, 34119, 36005, 33428, 27313, 22493, 22761, 28087, 34792, 39771, 43312, 44755, 40288, 31680, 27583, 29546, 31302, 31991, 33919, 34396, 30600, 24771, 21941, 24978, 31400, 37025, 41251, 44719, 44117, 36679, 28706, 27811, 30571, 31337, 32212, 34395, 34128, 29854, 24437, 22650, 26406, 31978, 36283, 40989, 45576, 44128, 35454, 28297, 28363, 30706, 31508, 32975, 34630, 32922, 27478, 22387, 22728, 28509, 34751, 39205, 43313], [34439, 37418, 38062, 36689, 35201, 35056, 35460, 35064, 34345, 34261, 33539, 30628, 27169, 25664, 26094, 27795, 31010, 34925, 37421, 37544, 36307, 35059, 34564, 35146, 36096, 36029, 34517, 31840, 28485, 25914, 25356, 26450, 28741, 32336, 36174, 38059, 37259, 35502, 34713, 35106, 35819, 36121, 35558, 33619, 30379, 27276, 25786, 25884, 27147, 29886, 33841, 37164, 38000, 36637, 35081, 34614, 35109, 36044, 36407, 34872, 31635, 28647, 27163, 26688, 26751, 28050, 31204, 35182, 37660, 37325, 35427, 34167, 34191, 34927, 35971, 36581, 35440, 32256, 28656, 26482, 25911, 26431, 28337, 31779, 35495, 37551, 37170, 35550, 34533, 34875, 36090, 36936, 36136, 33550, 30268, 27486, 25810, 25433, 26657, 29722]], "framecount": 17.0, "time": 1489540232752}
{"dataframe": [[34627, 35927, 35970, 34636, 33321, 33132, 33341, 33338, 33451, 33338, 32294, 30681, 29552, 29514, 30388, 31675, 33192, 34826, 35737, 35211, 34063, 33397, 33125, 33012, 33185, 33355, 33075, 32165, 30762, 29680, 29743, 30702, 31963, 33603, 35370, 35872, 34567, 33275, 33550, 34063, 33140, 31988, 32181, 32403, 31457, 30888, 31290, 31293, 31446, 32997, 34612, 34800, 33814, 32415, 32073, 33522, 34764, 34354, 33653, 33449, 32801, 31468, 30178, 29609, 30138, 31304, 32382, 33672, 35129, 35425, 34556, 33977, 33633, 32929, 32769, 33312, 33176, 32214, 31349, 30555, 29824, 29888, 31058, 33161, 35196, 35364, 34050, 33794, 34592, 34362, 33439, 33110, 32756, 32057, 31547, 30810, 29911, 29886, 30651, 31943], [27569, 23790, 24474, 29016, 32527, 33161, 33208, 33211, 32207, 31637, 33577, 37268, 40008, 40132, 37877, 34159, 29714, 25733, 24501, 27142, 31098, 33214, 33653, 33578, 32728, 31522, 31732, 34223, 37788, 40073, 39600, 36806, 32852, 28635, 25686, 25728, 27922, 29885, 31661, 34139, 35991, 35649, 33252, 31378, 33342, 37293, 38240, 36718, 35573, 32779, 27290, 24252, 27163, 32216, 34688, 34708, 33959, 32475, 30614, 29796, 31030, 34425, 38504, 40397, 38705, 35095, 31672, 28734, 26852, 27619, 30167, 31768, 32319, 32903, 32540, 31039, 30847, 33371, 37228, 40331, 40949, 38292, 33461, 28409, 25277, 26035, 29379, 31482, 31924, 32839, 33497, 32483, 31157, 31159, 33537, 38495, 42299, 40818, 36049, 31682], [35932, 37866, 36653, 34364, 33534, 33508, 33099, 32902, 33262, 33171, 31782, 29603, 28112, 28248, 29708, 31957, 34742, 37128, 37502, 35678, 33666, 32964, 32904, 32791, 33034, 33564, 33335, 31635, 29263, 28018, 28633, 30335, 32544, 35025, 36663, 36635, 36192, 36024, 34129, 30611, 29505, 31890, 34150, 34037, 32152, 29842, 28978, 30003, 30848, 31267, 33752, 37531, 38448, 35782, 32702, 31292, 31595, 32860, 33884, 34058, 33324, 31364, 28989, 28188, 29359, 31233, 33328, 35617, 36806, 35847, 34090, 33274, 33127, 33083, 33589, 34303, 33795, 31686, 29229, 27799, 27915, 29562, 32369, 35303, 37024, 36879, 35430, 33883, 32991, 32765, 32995, 33453, 33872, 33682, 31817, 28505, 26504, 27715, 30547, 33253], [31704, 31491, 32058, 32662, 32613, 32434, 32686, 32861, 32625, 32572, 33111, 33875, 34279, 34044, 33368, 32625, 31898, 31300, 31331, 32047, 32662, 32804, 32931, 33120, 32953, 32599, 32660, 33222, 33774, 33870, 33564, 33136, 32605, 31945, 31567, 31755, 31999, 32069, 32665, 33708, 33924, 33051, 32162, 31972, 32621, 33797, 34306, 33562, 32849, 32934, 32606, 31490, 31076, 31900, 32912, 33380, 33210, 32615, 32230, 32380, 32849, 33508, 34063, 34088, 33674, 33007, 32125, 31457, 31461, 31981, 32517, 32769, 32845, 32917, 32823, 32493, 32471, 33179, 33990, 34113, 33779, 33355, 32569, 31617, 31319, 31764, 32343, 32777, 33023, 32937, 32658, 32547, 32574, 32610, 32975, 33787, 34381, 34148, 33321, 32448], [28640, 27643, 29245, 31444, 32372, 32587, 32847, 32593, 31751, 31521, 33006, 35849, 38111, 38180, 36429, 33916, 30914, 28070, 27224, 29080, 31525, 32554, 32807, 33081, 32678, 31820, 32193, 34282, 36599, 37667, 37229, 35555, 32842, 29643, 27458, 27938, 30630, 32910, 33328, 32780, 32094, 31432, 31331, 32353, 34707, 37651, 38958, 37389, 34568, 31964, 29273, 27422, 28245, 30670, 32153, 32539, 32713, 32459, 31836, 31860, 33369, 36112, 38316, 38221, 36300, 33946, 31130, 27955, 26637, 28650, 31707, 33006, 33001, 32987, 32571, 31759, 31982, 33987, 36668, 38082, 37403, 35514, 33207, 30304, 27614, 27328, 29683, 32085, 32991, 33137, 32885, 32137, 31742, 32639, 34765, 36989, 37861, 36948, 34923, 32302], [33715, 34299, 34196, 33168, 32255, 32267, 32605, 32667, 32720, 32881, 32790, 32361, 31914, 31736, 31971, 32569, 33276, 33844, 34076, 33784, 33086, 32497, 32353, 32456, 32553, 32723, 32954, 32845, 32288, 31813, 31806, 32154, 32742, 33423, 33756, 33649, 33656, 33763, 33178, 32071, 31578, 32001, 32693, 32990, 32717, 32356, 32226, 32155, 32312, 32926, 33706, 34256, 34093, 33051, 32064, 31938, 32227, 32488, 32838, 33120, 33091, 32805, 32327, 31878, 31938, 32580, 33233, 33489, 33449, 33242, 32975, 32834, 32785, 32710, 32724, 32874, 32926, 32660, 32125, 31649, 31619, 32111, 32908, 33753, 34226, 33925, 33180, 32736, 32623, 32431, 32307, 32553, 32922, 33056, 32793, 32101, 31488, 31655, 32412, 33172], [45231, 40480, 31669, 27599, 29600, 31418, 31915, 33665, 34567, 31342, 25434, 21892, 24207, 30475, 36499, 41117, 44823, 44666, 37472, 28886, 27374, 30420, 31539, 32209, 34262, 34110, 29750, 24026, 22002, 26052, 32768, 38092, 42248, 45311, 43013, 34342, 27820, 28989, 31359, 30568, 31212, 34074, 33787, 28690, 23345, 23338, 28914, 35042, 38826, 41825, 43926, 41113, 33426, 28178, 28726, 30286, 30963, 33104, 34752, 31994, 26107, 22593, 25052, 31395, 37099, 40793, 43445, 43116, 36803, 28874, 27186, 30216, 31753, 32642, 34842, 34965, 30809, 25143, 22563, 25297, 31118, 36614, 41188, 44771, 43553, 35438, 27941, 28212, 31439, 32125, 32996, 34701, 33204, 28125, 23259, 22461, 26830, 33501, 39143, 43387], [33820, 37127, 38228, 37283, 35736, 34875, 34929, 35333, 35274, 34097, 31807, 29406, 27922, 27223, 27062, 28162, 31045, 34875, 37557, 37365, 35281, 33944, 34161, 34873, 35447, 35708, 34937, 32590, 29491, 27164, 26369, 26983, 28773, 31648, 34910, 36865, 36621, 35539, 35130, 35126, 35132, 35639, 36079, 34649, 31206, 27840, 25925, 25396, 26523, 29519, 33467, 36812, 37971, 36788, 35364, 35135, 35233, 35259, 35745, 35710, 33810, 30608, 27293, 24910, 24989, 27680, 31254, 34766, 37442, 37553, 35700, 34574, 34539, 34715, 35573, 36481, 35461, 32522, 29318, 26865, 25614, 25919, 27810, 31202, 35349, 37961, 37480, 35573, 34516, 34405, 34896, 35958, 36398, 34997, 32200, 29143, 26679, 25471, 25996, 28612]], "framecount": 18.0, "time": 1489540232861}
{"dataframe": [[34155, 36079, 35851, 34188, 33185, 33278, 33427, 33137, 32988, 33192, 32887, 31618, 30237, 29647, 29965, 31085, 32900, 34860, 35891, 35281, 33687, 32679, 33046, 33894, 34051, 33597, 32872, 31767, 30726, 30150, 29721, 29927, 31573, 33630, 34732, 35299, 35795, 35289, 33391, 31650, 31701, 33096, 34092, 33734, 32336, 30748, 29723, 29637, 30525, 32193, 34044, 35102, 34980, 34451, 34113, 33649, 33152, 33175, 33368, 33035, 32281, 31359, 30399, 29854, 30053, 31141, 33134, 35077, 35665, 34885, 33759, 33150, 33071, 32998, 33105, 33800, 34111, 32774, 30365, 28840, 29381, 31098, 32488, 33779, 35291, 35265, 33483, 32789, 33509, 33414, 33196, 34105, 34245, 32840, 31716, 31088, 30174, 29929, 30781, 31561], [27504, 24331, 25531, 29969, 32757, 32952, 32973, 33152, 32368, 31383, 32361, 35882, 39538, 40431, 38362, 34875, 30681, 26518, 24804, 26975, 30420, 32014, 32744, 34371, 34835, 32549, 31047, 33320, 36847, 38624, 38625, 36917, 33360, 29224, 26429, 26292, 28421, 31439, 34524, 35966, 34007, 30578, 28940, 29944, 33587, 38462, 40778, 39458, 37095, 33719, 28217, 24645, 26787, 30734, 32012, 32326, 33198, 32731, 30979, 30229, 31614, 35289, 39666, 41573, 40103, 36416, 31144, 26013, 24018, 26034, 30136, 33500, 34566, 34023, 32639, 30478, 29468, 32183, 37361, 40895, 40925, 38495, 34558, 29459, 24966, 24418, 28355, 32293, 33158, 33040, 33243, 32295, 30742, 31140, 34160, 37894, 40099, 39859, 37155, 32846], [36025, 37952, 37237, 35069, 33817, 33176, 32475, 32636, 33405, 33249, 31874, 29978, 28404, 28184, 29586, 31838, 34331, 36524, 37095, 35881, 35168, 35324, 33323, 29817, 29796, 33203, 34793, 32954, 30195, 28533, 28893, 30837, 32640, 34071, 35933, 36821, 35344, 33354, 32672, 32690, 33014, 33881, 34358, 33365, 31152, 28899, 27984, 28815, 30364, 32357, 35523, 38044, 36921, 33795, 32655, 33175, 33151, 33259, 34209, 34497, 32998, 30224, 27765, 27268, 28748, 31028, 33655, 36458, 38116, 37214, 34453, 32246, 31887, 32656, 33739, 34750, 34431, 31918, 28965, 27638, 27648, 28701, 31573, 35420, 37994, 38042, 35953, 33547, 32502, 32520, 32659, 33067, 33727, 33452, 31484, 29004, 27882, 28638, 30729, 33435], [31665, 31140, 31421, 32332, 32881, 32899, 32896, 32759, 32468, 32603, 33199, 33770, 34125, 34037, 33326, 32510, 31993, 31609, 31634, 32173, 32260, 31974, 32761, 34032, 33807, 32580, 32117, 32559, 33360, 34041, 33872, 33061, 32641, 32485, 31873, 31487, 32103, 32767, 32699, 32605, 32767, 32666, 32479, 32755, 33398, 33957, 34078, 33733, 33274, 32733, 31765, 30984, 31459, 32559, 32935, 32803, 32851, 32761, 32393, 32350, 32919, 33773, 34346, 34188, 33484, 32819, 32245, 31512, 31097, 31624, 32589, 33117, 33214, 33071, 32525, 32016, 32376, 33356, 33974, 34074, 34076, 33735, 32689, 31547, 31112, 31400, 32068, 32764, 33081, 33030, 32988, 32889, 32529, 32424, 33038, 33782, 33996, 33798, 33307, 32470], [29329, 27367, 28217, 30981, 32701, 32743, 32685, 32681, 31980, 31487, 32790, 35579, 37713, 37797, 36384, 34339, 31699, 28911, 27661, 28912, 31134, 32386, 32678, 32605, 32139, 31654, 31972, 33675, 36409, 38316, 37961, 36131, 33740, 30598, 27689, 27277, 29492, 31730, 32405, 32498, 32728, 32467, 31923, 32511, 34736, 37213, 38182, 37326, 35301, 32451, 29274, 27244, 27725, 30036, 32058, 32962, 33321, 33133, 32285, 31836, 32887, 35160, 37260, 37864, 36697, 34387, 31548, 28781, 27489, 28721, 31078, 32433, 32752, 32765, 32416, 32017, 32379, 33844, 35966, 37476, 37366, 35923, 33702, 30883, 28344, 27692, 29357, 31679, 32872, 32987, 32832, 32342, 31544, 31759, 33924, 36700, 38044, 37560, 35882, 33234], [33870, 34249, 33781, 32895, 32515, 32586, 32560, 32534, 32757, 32935, 32721, 32245, 31886, 31867, 32173, 32679, 33231, 33697, 33902, 33721, 33420, 33161, 32471, 31592, 31733, 32693, 33052, 32745, 32482, 32285, 32310, 32751, 33058, 33065, 33266, 33423, 33096, 32762, 32679, 32480, 32435, 32959, 33501, 33330, 32501, 31686, 31562, 32050, 32425, 32691, 33450, 34090, 33595, 32781, 32795, 32997, 32718, 32597, 32933, 33153, 32902, 32264, 31650, 31504, 31724, 32178, 33112, 34199, 34554, 33987, 33057, 32342, 32130, 32262, 32551, 33123, 33549, 32982, 31817, 31277, 31531, 32073, 32854, 33754, 34236, 33981, 33260, 32703, 32565, 32520, 32516, 32787, 33048, 32891, 32429, 31915, 31552, 31709, 32493, 33315], [45568, 41965, 32935, 26973, 28297, 30920, 31696, 33451, 34932, 32405, 26798, 22560, 23436, 29063, 35423, 40242, 44213, 45237, 39233, 30102, 27210, 30192, 31418, 31027, 33228, 35066, 31530, 24785, 21716, 25231, 31888, 37752, 42059, 44598, 42817, 35390, 28215, 27773, 30665, 31597, 32627, 34883, 34332, 29425, 23773, 22298, 26625, 33383, 38709, 42436, 44601, 41571, 33042, 27349, 28930, 31482, 31807, 33354, 35073, 32896, 27452, 23007, 23397, 28346, 34013, 38821, 43642, 45805, 40674, 31323, 27017, 29068, 30928, 31577, 33923, 35412, 31984, 25458, 21854, 24510, 30707, 36345, 40935, 44801, 44408, 36870, 28348, 27035, 30182, 31617, 32909, 35427, 34962, 29644, 23509, 22031, 26296, 32342, 37261, 41649], [32678, 35866, 36651, 36162, 35723, 35487, 35807, 36602, 36668, 35594, 33775, 30766, 26768, 24182, 24827, 27440, 30330, 33752, 37174, 38240, 36800, 35429, 35213, 35395, 35735, 35881, 34912, 32641, 29628, 26806, 25371, 25820, 27846, 31170, 34985, 37372, 37192, 35733, 34875, 34930, 35423, 36126, 36425, 35234, 32260, 28624, 25775, 24585, 25557, 28583, 32650, 36267, 38002, 37592, 36400, 35581, 35083, 34919, 35174, 34967, 33327, 30583, 27934, 26283, 25919, 26998, 29812, 33820, 36893, 37288, 35898, 34737, 34405, 34553, 34897, 34853, 34081, 33821, 35956, 39190, 38387, 31302, 22906, 18963, 19551, 22138, 26007, 31239, 37053, 42368, 46258, 47803, 46327, 41817, 35110, 27860, 21999, 18874, 18858, 21643]], "framecount": 19.0, "time": 1489540232971}
{"dataframe": [[32566, 34602, 35774, 34811, 33833, 33727, 33112, 32488, 32986, 33781, 33914, 32904, 30799, 29310, 29507, 30167, 31029, 33294, 35999, 36564, 34857, 33266, 33066, 33306, 33274, 33389, 33460, 32738, 31367, 29969, 29138, 29623, 31460, 33896, 36039, 36290, 33988, 31790, 32015, 33074, 33444, 33957, 34578, 34375, 33364, 31604, 29537, 28694, 29541, 31078, 32861, 34550, 35218, 34972, 34782, 34658, 34059, 32959, 31929, 31953, 32925, 33020, 31631, 30483, 30380, 30371, 30620, 32387, 35000, 36039, 35001, 33908, 33792, 33802, 33599, 33465, 33131, 32268, 31005, 29829, 29350, 29900, 31357, 33231, 34880, 35642, 35178, 34104, 33436, 33191, 32892, 32926, 33708, 34227, 32845, 29818, 28042, 29361, 31678, 32820], [28754, 26285, 26259, 28298, 30312, 32032, 34550, 35521, 32894, 29994, 30595, 34477, 38884, 40449, 38365, 35564, 33332, 29333, 24525, 24424, 29719, 34161, 34334, 32949, 31983, 30747, 30064, 32143, 36846, 41047, 41524, 38150, 33749, 29919, 26177, 24319, 26762, 31273, 34484, 35770, 34529, 31337, 29442, 30138, 32610, 36686, 40262, 40381, 37864, 34584, 30332, 26309, 25542, 28116, 30852, 31968, 32510, 33231, 33202, 32181, 32030, 34265, 37394, 38819, 38323, 37005, 34531, 30238, 25982, 25247, 28330, 31459, 32313, 31965, 31696, 32044, 32916, 34141, 36769, 40131, 40565, 37405, 33885, 30613, 26361, 23939, 26636, 31540, 33848, 33784, 33529, 32780, 31293, 30851, 33015, 37143, 40334, 40072, 37112, 33526], [35676, 36460, 35795, 34658, 33881, 33295, 32864, 33251, 34068, 33945, 32515, 30379, 28439, 27840, 28933, 30922, 33282, 35898, 37627, 37077, 34940, 33078, 32204, 32364, 33350, 34257, 34454, 33110, 29324, 25740, 26463, 30258, 33114, 34980, 37171, 37966, 36104, 33751, 32722, 32348, 32272, 32932, 33667, 33414, 31920, 29681, 28119, 28507, 30241, 32162, 34520, 37029, 37451, 35447, 33884, 33707, 33154, 32369, 32681, 33248, 32541, 30589, 28668, 28411, 30232, 32332, 33193, 34085, 35979, 36704, 35100, 33424, 33166, 33562, 33746, 33367, 32773, 31992, 29951, 27687, 28217, 30841, 32283, 33124, 35610, 37672, 36484, 34069, 33232, 33123, 32751, 32945, 33498, 33157, 31663, 29695, 28444, 28759, 30098, 31859], [31680, 31467, 31943, 32657, 32954, 32785, 32565, 32352, 32186, 32486, 33248, 33845, 34012, 34003, 33778, 33065, 32060, 31379, 31442, 31962, 32310, 32581, 33118, 33280, 32679, 32212, 32321, 32838, 33985, 34954, 34382, 33040, 32323, 31781, 31056, 31180, 32300, 33061, 32916, 32698, 32885, 33043, 32839, 32590, 32849, 33615, 34144, 33911, 33301, 32752, 32033, 31229, 31178, 31974, 32686, 32965, 33087, 32950, 32598, 32592, 33091, 33716, 34186, 34159, 33252, 32050, 31705, 31982, 31903, 31912, 32615, 33172, 33017, 32684, 32532, 32531, 32621, 32881, 33518, 34129, 33918, 33177, 32816, 32592, 31875, 31346, 31794, 32494, 32636, 32672, 32947, 32974, 32677, 32674, 33185, 33725, 33855, 33643, 33302, 32814], [29911, 27420, 27630, 30175, 32394, 32826, 32487, 32282, 31965, 31805, 32856, 35210, 37436, 38206, 37272, 34852, 31512, 28553, 27507, 28741, 30797, 32143, 32811, 33062, 32560, 31787, 31983, 33649, 36038, 37614, 37498, 36202, 34135, 31108, 28124, 27292, 29066, 31399, 32500, 32801, 33102, 32877, 31977, 31881, 33767, 36601, 38187, 37643, 35739, 33088, 29801, 27195, 27379, 30001, 32288, 33096, 33328, 32996, 31907, 31381, 32585, 35030, 37249, 37960, 36957, 34797, 31862, 28840, 27446, 28709, 31079, 32420, 32761, 32973, 32787, 31987, 31626, 32848, 35329, 37474, 38063, 36928, 34353, 31055, 28332, 27507, 28930, 31183, 32467, 32849, 33109, 32810, 31857, 31782, 33641, 36297, 37836, 37572, 35913, 33317], [33709, 33876, 33832, 33432, 32964, 32506, 32039, 32092, 32667, 33010, 32954, 32665, 32072, 31657, 32074, 32869, 33244, 33444, 33931, 34032, 33061, 31950, 31903, 32463, 32707, 32941, 33551, 33623, 32468, 31227, 31207, 32058, 32887, 33513, 33925, 33858, 33307, 32686, 32318, 32323, 32737, 33195, 33230, 32986, 32650, 32057, 31556, 31703, 32219, 32698, 33310, 33922, 33957, 33448, 32999, 32803, 32628, 32478, 32527, 32706, 32731, 32452, 32070, 31972, 32261, 32568, 32684, 33037, 33759, 34062, 33474, 32724, 32621, 32913, 32880, 32561, 32567, 32633, 31995, 31331, 31838, 32811, 33016, 33043, 33665, 34083, 33637, 32943, 32617, 32562, 32539, 32576, 32734, 32787, 32481, 31991, 31805, 32098, 32536, 32913], [44868, 42903, 34957, 28507, 29049, 31376, 31174, 31891, 34022, 33189, 28504, 23657, 23035, 27598, 33810, 38861, 43239, 45528, 41358, 32394, 27486, 29052, 30843, 31198, 33088, 34637, 32081, 26515, 22687, 24157, 29948, 36235, 40962, 44379, 44513, 37967, 29001, 26626, 29746, 31191, 31937, 34782, 35557, 31038, 24760, 22305, 25542, 31554, 36901, 41293, 44757, 43390, 35130, 27642, 28139, 31596, 32173, 32746, 34505, 33360, 28427, 23555, 22937, 27519, 34065, 39111, 42469, 43998, 40488, 32330, 27441, 29263, 31792, 32479, 34150, 35321, 32509, 26646, 22085, 22885, 28654, 35100, 40021, 44015, 44946, 39266, 30745, 27579, 29576, 30992, 31949, 34303, 35005, 31317, 25298, 21985, 24587, 30897, 36800, 41403], [26702, 32805, 37511, 39354, 39755, 40226, 40166, 39238, 38006, 35928, 32463, 28796, 26124, 24340, 23340, 23962, 27274, 32933, 38251, 40285, 39036, 37138, 36419, 36230, 35454, 34373, 33417, 31772, 29074, 26730, 25851, 26217, 27831, 30865, 34512, 37201, 37634, 36307, 35320, 35556, 36023, 36123, 35943, 34829, 32081, 28672, 26319, 25409, 25666, 27569, 31408, 35869, 38452, 37933, 36122, 35288, 35211, 35060, 35207, 35330, 34010, 31167, 28366, 26582, 25863, 26665, 29276, 32915, 36288, 37817, 36880, 35251, 34670, 34772, 35077, 35615, 35516, 33840, 30963, 28109, 26296, 25922, 27112, 29970, 33957, 37166, 37606, 35936, 34617, 34383, 34663, 35543, 36481, 35952, 33513, 30093, 26975, 25281, 25397, 27202]], "framecount": 20.0, "time": 1489540233065}
{"dataframe": [[32493, 34963, 36027, 35022, 33815, 33194, 32740, 32813, 33665, 34262, 33653, 32344, 31141, 29959, 29180, 29844, 31506, 33131, 34788, 35799, 35205, 34300, 33988, 33031, 32067, 32993, 34065, 32835, 31038, 30782, 30909, 30426, 30465, 31784, 33711, 35199, 35518, 34851, 34026, 33334, 32823, 32778, 32932, 32863, 32511, 31520, 30168, 29953, 31173, 32381, 33068, 33876, 34576, 34625, 34507, 34380, 33412, 31965, 31780, 33039, 33858, 32994, 31303, 30377, 30435, 30622, 31194, 33083, 35379, 35931, 34479, 32891, 32391, 32663, 33355, 34333, 34677, 33386, 31186, 29888, 29873, 30099, 30291, 31320, 33799, 36673, 37342, 35062, 32631, 31835, 31637, 32309, 34418, 35424, 33496, 30625, 29087, 29087, 30035, 31452], [30782, 25499, 24898, 29271, 32447, 32812, 32958, 32448, 30813, 30753, 32781, 34452, 35994, 39071, 41137, 38707, 33811, 29598, 25804, 24284, 27608, 31592, 32200, 32630, 34126, 33263, 31338, 32469, 35567, 37783, 39173, 39400, 36836, 32032, 27323, 24702, 25777, 29899, 33330, 33818, 32567, 31294, 31168, 32470, 34423, 36884, 39282, 39485, 37265, 34581, 31191, 26252, 23608, 27135, 32343, 33069, 32227, 34072, 34871, 32057, 30497, 33089, 36500, 38097, 38670, 38270, 35243, 29993, 25673, 24818, 27568, 31878, 34606, 34390, 32645, 30856, 29987, 31694, 35704, 38834, 39689, 39417, 37478, 32556, 26346, 22894, 25354, 31978, 36093, 34647, 31882, 30862, 30159, 29881, 32269, 36782, 40133, 40700, 39371, 36220], [34598, 36838, 37177, 35184, 33363, 33090, 33479, 34069, 34156, 32742, 31241, 31081, 30436, 28470, 27956, 30158, 32950, 35178, 37179, 37641, 35525, 33137, 32630, 32907, 32895, 33158, 33398, 32592, 30861, 29079, 28151, 28863, 30998, 33553, 36116, 37854, 36900, 33903, 32234, 32516, 32818, 33363, 34578, 34332, 31730, 29032, 28156, 28827, 29998, 31301, 33500, 36811, 38543, 36153, 32679, 32561, 33827, 32953, 32183, 33499, 33706, 31432, 29699, 29546, 29408, 29608, 31419, 34257, 36545, 36988, 35512, 33762, 33026, 32949, 33227, 33877, 34014, 32802, 30769, 28892, 27639, 27774, 30345, 34658, 37781, 37430, 34662, 32568, 32600, 33731, 34618, 34543, 33574, 32721, 31957, 30104, 28121, 28140, 29718, 31591], [31769, 31471, 31624, 32150, 32750, 32986, 32733, 32340, 32404, 32885, 33103, 33244, 33920, 34367, 33776, 32935, 32400, 31675, 31076, 31429, 32325, 32970, 33318, 33275, 32678, 32181, 32467, 33132, 33553, 33859, 34059, 33594, 32620, 32057, 31902, 31631, 31677, 32318, 32843, 33102, 33376, 33066, 32119, 31942, 33012, 33977, 33984, 33647, 33496, 33206, 32358, 31219, 30876, 31951, 33183, 33152, 32629, 32763, 32905, 32541, 32575, 33229, 33606, 33643, 33806, 33651, 32841, 31989, 31534, 31521, 31989, 32556, 32773, 32788, 32783, 32678, 32681, 33055, 33567, 33892, 34036, 33850, 32959, 31704, 31152, 31712, 32558, 32777, 32546, 32486, 32549, 32579, 32783, 33062, 33290, 33668, 33911, 33610, 33164, 32862], [30501, 28329, 27621, 28922, 31233, 32708, 33169, 33195, 32566, 31641, 31876, 33958, 36609, 37908, 37414, 35787, 33148, 29803, 27503, 27842, 30132, 32280, 33151, 32966, 32297, 31719, 31691, 32585, 34786, 37466, 38508, 37139, 34581, 31796, 29122, 27677, 28479, 30453, 31862, 32762, 33535, 33342, 32126, 31505, 32713, 35259, 37484, 37985, 36635, 34144, 31180, 28579, 27705, 29056, 31164, 32512, 33027, 32879, 32150, 31516, 31771, 33526, 36562, 38849, 38465, 35883, 32671, 29720, 27778, 27865, 29800, 31728, 32485, 32695, 32823, 32588, 32196, 32484, 34259, 37022, 38495, 37257, 34617, 32123, 29668, 27706, 27914, 30014, 31840, 32816, 33457, 33287, 32309, 31874, 32926, 35158, 37250, 37688, 36382, 34418], [33193, 33958, 33884, 33175, 32682, 32624, 32760, 32971, 33000, 32651, 32382, 32558, 32534, 31857, 31449, 32030, 32927, 33611, 34204, 34212, 33355, 32649, 32571, 32403, 32221, 32614, 32998, 32746, 32426, 32381, 32114, 31724, 31999, 32967, 33876, 34238, 33934, 33129, 32418, 32281, 32627, 33047, 33033, 32539, 32203, 32169, 31954, 31794, 32201, 32777, 33277, 34103, 34582, 33639, 32365, 32375, 32783, 32376, 32094, 32616, 32921, 32633, 32508, 32554, 32256, 31962, 32261, 33113, 34065, 34270, 33332, 32377, 32369, 32660, 32764, 33106, 33374, 32829, 31975, 31623, 31509, 31499, 32229, 33578, 34510, 34540, 33830, 32717, 31998, 32197, 32664, 32781, 32830, 32941, 32789, 32416, 32052, 31746, 31807, 32567], [44312, 44726, 38358, 29711, 27414, 30125, 31519, 32430, 34474, 34060, 29476, 24007, 22261, 25974, 32229, 37615, 42006, 45184, 43376, 35215, 27993, 28011, 30808, 31541, 32719, 34781, 33335, 27520, 22373, 23010, 28661, 34650, 39217, 43352, 45223, 40673, 31481, 26497, 28743, 31724, 32624, 34331, 35455, 32117, 25632, 21471, 23258, 29376, 35733, 40642, 44487, 45157, 39170, 30128, 26879, 29787, 31834, 32071, 33666, 34609, 30987, 24478, 21483, 25071, 31529, 36951, 41645, 45492, 44228, 36040, 28427, 28147, 30639, 31002, 32199, 34781, 34092, 28881, 23323, 22382, 26671, 32494, 37766, 43137, 46565, 43052, 33517, 27120, 28094, 30681, 31848, 33872, 35097, 32108, 26214, 21946, 23124, 29156, 35533, 40184], [30318, 34244, 37358, 38030, 36691, 35506, 35358, 35445, 35491, 35470, 34411, 31801, 28655, 26291, 25448, 26369, 28817, 32366, 36204, 38279, 37111, 34907, 34733, 35631, 35582, 35451, 35583, 34093, 30898, 28148, 26596, 25833, 26506, 29118, 32836, 36345, 38013, 37067, 35248, 34632, 35143, 35756, 35875, 35191, 33449, 30582, 27447, 25613, 25743, 27372, 30106, 33688, 36936, 38050, 36884, 35395, 34824, 34846, 35407, 36149, 35444, 32730, 29584, 27289, 25963, 25992, 27770, 30879, 34488, 37187, 37560, 36158, 34849, 34527, 35180, 36385, 36741, 34999, 31714, 28325, 25819, 24949, 25972, 28422, 32073, 36260, 38604, 37657, 35517, 34800, 35330, 35847, 36135, 35933, 34090, 30404, 26777, 25076, 25235, 26673]], "framecount": 21.0, "time": 1489540233158}
