{"dataframe": [[32768, 32768, 32768, 32768, 32768, 32768, 32768, 32768, 32768, 32768, 32768, 32768, 32768, 32768, 32768, 32768, 32768, 32768, 32768, 32768, 32768, 32768, 32768, 32768, 32768, 32768, 32768, 32768, 32768, 32768, 32768, 32768, 32768, 32768, 32768, 32768, 32768, 32768, 32768, 32768, 32768, 32768, 32768, 32768, 32768, 32768, 32768, 32704, 32740, 31991, 30649, 30588, 31746, 32793, 33473, 33758, 33417, 33149, 33474, 33689, 33601, 33681, 33691, 33564, 33425, 32409, 30502, 29520, 30106, 31116, 32116, 33259, 34203, 34979, 35773, 35645, 33967, 32147, 31628, 31977, 32231, 32032, 31545, 31419, 32005, 32675, 32631, 32021, 31962, 33106, 34416, 34622, 34115, 33746, 33342, 32928, 33052, 33165, 32379, 31256], [32768, 32768, 32768, 32768, 32768, 32768, 32768, 32768, 32768, 32768, 32768, 32768, 32768, 32768, 32768, 32768, 32768, 32768, 32768, 32768, 32768, 32768, 32768, 32768, 32768, 32768, 32768, 32768, 32768, 32768, 32768, 32768, 32768, 32768, 32768, 32768, 32768, 32768, 32768, 32768, 32768, 32768, 32768, 32768, 32768, 32768, 32768, 33297, 35316, 38251, 39272, 37054, 33793, 30816, 27952, 26712, 28373, 30956, 32404, 33417, 34254, 33545, 31688, 30793, 31999, 34981, 37910, 38625, 37109, 34677, 31599, 28344, 27196, 29119, 31318, 31622, 31753, 32883, 33152, 31993, 31691, 33621, 36442, 38123, 38042, 36670, 34092, 30391, 27300, 27047, 29300, 31788, 33213, 33345, 32308, 31059, 30733, 31933, 34703, 37808], [32768, 32768, 32768, 32768, 32768, 32768, 32768, 32768, 32768, 32768, 32768, 32768, 32768, 32768, 32768, 32768, 32768, 32768, 32768, 32768, 32768, 32768, 32768, 32768, 32768, 32768, 32768, 32768, 32768, 32768, 32768, 32768, 32768, 32768, 32768, 32768, 32768, 32768, 32768, 32768, 32768, 32768, 32768, 32768, 32768, 32768, 32768, 32912, 30886, 28886, 28611, 29325, 30435, 32859, 35830, 36923, 35813, 34544, 34075, 33475, 32693, 32853, 33556, 33202, 31622, 30047, 29332, 29318, 29683, 30836, 33439, 36804, 38391, 36466, 33051, 31538, 32130, 32941, 33648, 34445, 34000, 31665, 29232, 28414, 29046, 30557, 32672, 34738, 35872, 35557, 34387, 33818, 34117, 34149, 33622, 33157, 32740, 31968, 30728, 29313], [32768, 32768, 32768, 32768, 32768, 32768, 32768, 32768, 32768, 32768, 32768, 32768, 32768, 32768, 32768, 32768, 32768, 32768, 32768, 32768, 32768, 32768, 32768, 32768, 32768, 32768, 32768, 32768, 32768, 32768, 32768, 32768, 32768, 32768, 32768, 32768, 32768, 32768, 32768, 32768, 32768, 32768, 32768, 32768, 32768, 32768, 32768, 33728, 35995, 36070, 34323, 33583, 33182, 31610, 30392, 30655, 31111, 31028, 31505, 33249, 34976, 34960, 33435, 32190, 32276, 33234, 33963, 33919, 33796, 33992, 33066, 29962, 26845, 27675, 33365, 38949, 38845, 34499, 31061, 29819, 30068, 31761, 33254, 33210, 32998, 33587, 34208, 34177, 33405, 32556, 32284, 31959, 31308, 31293, 31863, 32349, 33021, 33512, 33302, 33681], [32768, 32768, 32768, 32768, 32768, 32768, 32768, 32768, 32768, 32768, 32768, 32768, 32768, 32768, 32768, 32768, 32768, 32768, 32768, 32768, 32768, 32768, 32768, 32768, 32768, 32768, 32768, 32768, 32768, 32768, 32768, 32768, 32768, 32768, 32768, 32768, 32768, 32768, 32768, 32768, 32768, 32768, 32768, 32768, 32768, 32768, 32768, 34698, 37693, 38331, 37396, 35919, 32969, 29803, 28213, 27921, 29072, 31334, 32898, 33830, 34671, 33702, 31194, 30679, 33043, 35547, 36586, 36869, 36832, 35341, 31652, 27030, 23658, 24843, 32745, 41190, 40749, 33671, 28971, 27723, 28183, 32006, 36634, 37514, 36421, 35846, 34323, 31935, 30665, 30667, 30956, 30597, 29873, 30604, 32435, 32795, 32065, 32729, 34842, 37181], [32768, 32768, 32768, 32768, 32768, 32768, 32768, 32768, 32768, 32768, 32768, 32768, 32768, 32768, 32768, 32768, 32768, 32768, 32768, 32768, 32768, 32768, 32768, 32768, 32768, 32768, 32768, 32768, 32768, 32768, 32768, 32768, 32768, 32768, 32768, 32768, 32768, 32768, 32768, 32768, 32768, 32768, 32768, 32768, 32768, 32768, 32768, 32596, 31865, 31320, 31540, 32241, 32684, 33305, 34403, 34772, 33878, 32896, 32415, 31914, 31589, 31981, 32584, 32867, 33033, 32954, 32500, 32397, 32783, 32775, 32598, 33391, 34489, 33900, 31859, 30851, 31642, 32723, 33499, 34137, 33881, 32673, 31871, 32041, 32446, 32492, 32303, 32399, 32906, 33229, 33173, 33194, 33308, 33325, 33300, 33030, 32480, 32159, 32066, 31792], [32768, 32768, 32768, 32768, 32768, 32768, 32768, 32768, 32768, 32768, 32768, 32768, 32768, 32768, 32768, 32768, 32768, 32768, 32768, 32768, 32768, 32768, 32768, 32768, 32768, 32768, 32768, 32768, 32768, 32768, 32768, 32768, 32768, 32768, 32768, 32768, 32768, 32768, 32768, 32768, 32768, 32768, 32768, 32768, 32768, 32768, 32768, 26531, 22292, 22907, 28181, 34338, 39197, 43460, 45484, 40984, 32171, 28014, 30012, 31411, 31329, 33146, 34381, 30997, 24808, 21452, 24225, 30794, 36773, 41124, 44847, 45450, 39207, 30149, 26467, 28138, 30184, 32134, 34365, 34325, 30459, 24920, 22851, 26809, 32936, 37387, 41123, 44175, 42035, 33819, 27710, 28936, 31788, 32430, 34029, 35714, 33077, 26960, 22177, 22329], [32768, 32768, 32768, 32768, 32768, 32768, 32768, 32768, 32768, 32768, 32768, 32768, 32768, 32768, 32768, 32768, 32768, 32768, 32768, 32768, 32768, 32768, 32768, 32768, 32768, 32768, 32768, 32768, 32768, 32768, 32768, 32768, 32768, 32768, 32768, 32768, 32768, 32768, 32768, 32768, 32768, 32768, 32768, 32768, 32768, 32768, 32768, 40761, 10492, 0, 0, 0, 0, 21676, 59206, 65535, 65535, 65535, 51044, 43620, 39764, 41899, 51792, 55895, 40171, 7472, 0, 0, 0, 0, 26134, 65342, 65535, 65535, 63519, 52723, 49482, 46336, 47786, 53288, 49713, 27855, 0, 0, 0, 0, 1913, 44880, 65535, 65535, 65535, 56826, 42832, 38135, 39500, 49062, 57367, 48281, 18926, 0]], "framecount": 0.0, "time": 1489540245003}
{"dataframe": [[30636, 30478, 30802, 31719, 33033, 34518, 35352, 34654, 33357, 33034, 33320, 33195, 33095, 33389, 33124, 31859, 30556, 30045, 30339, 31283, 32488, 33557, 34785, 35865, 35440, 33765, 32675, 32414, 32130, 32148, 32698, 32807, 32101, 31318, 31007, 31311, 32154, 33105, 33854, 34320, 34190, 33433, 32630, 32493, 33477, 34659, 34275, 32634, 31328, 30405, 29822, 30511, 32060, 33179, 34018, 34902, 34931, 33870, 32850, 32499, 32469, 32557, 32897, 33390, 33427, 32586, 31553, 31085, 30882, 30941, 31965, 33563, 34469, 34520, 34323, 33906, 33291, 33027, 33115, 32843, 32190, 31818, 31694, 31546, 31729, 32009, 31837, 32280, 33885, 34496, 33243, 32509, 33326, 34211, 34577, 34435, 33212, 31530, 30711, 30749], [39378, 38719, 36240, 32615, 28772, 26372, 27094, 30038, 32167, 32607, 32765, 32756, 31939, 31378, 32691, 35709, 38543, 39394, 37820, 34564, 30830, 27810, 26644, 27888, 30583, 32950, 33834, 33100, 31789, 31297, 31796, 33059, 35565, 38639, 39925, 38142, 34038, 29130, 25782, 26433, 30274, 33361, 33623, 32295, 30765, 29944, 30763, 33076, 36061, 38822, 39914, 38545, 35502, 31752, 27908, 25608, 26847, 30604, 33205, 33340, 32849, 32607, 31980, 31435, 32385, 35112, 38134, 39484, 38220, 34700, 30335, 27307, 27301, 29596, 31480, 31820, 32034, 32521, 32119, 31279, 31728, 33950, 36958, 38941, 38517, 36514, 34409, 31482, 27411, 25493, 27925, 31474, 32819, 32902, 32892, 32194, 31469, 32393, 34975, 37742], [28682, 29644, 31622, 33671, 35619, 36541, 35181, 33112, 32893, 33832, 34148, 34024, 33649, 32566, 31131, 29785, 28929, 29434, 31018, 32463, 33991, 35810, 36115, 34371, 32971, 33051, 33354, 33598, 34209, 34357, 33310, 31317, 29060, 27984, 28958, 30816, 32629, 34775, 36425, 36048, 34458, 33505, 33332, 33484, 33800, 33687, 33026, 32240, 31033, 29530, 28878, 29393, 30648, 32702, 35182, 36595, 35997, 34478, 33636, 33403, 33175, 33346, 33857, 33601, 32143, 30140, 28597, 28378, 29505, 31352, 33655, 36063, 37157, 35989, 34017, 33119, 33018, 32892, 33152, 34007, 34364, 32853, 29636, 27020, 26986, 28989, 31734, 34960, 37831, 38377, 36448, 34391, 33251, 32078, 31332, 32102, 33128, 32846, 31668, 30275], [34867, 34769, 33118, 31237, 29472, 29654, 33312, 36563, 35825, 33718, 32272, 30228, 29113, 30699, 32325, 32676, 33729, 35139, 35668, 35773, 34402, 31282, 30111, 32128, 33281, 31778, 30623, 31446, 32440, 32224, 31752, 32807, 35276, 36528, 35455, 34157, 33193, 30974, 28906, 29648, 31774, 33027, 33976, 34362, 33439, 33114, 33744, 32960, 31199, 30470, 30879, 33100, 36780, 37499, 33754, 30645, 30842, 31422, 31186, 31617, 32378, 32457, 32500, 33023, 33523, 33817, 34118, 34400, 34400, 33727, 32341, 30906, 30319, 31249, 33158, 33849, 32657, 32037, 32899, 32857, 31283, 30892, 32955, 35134, 35313, 34627, 34668, 34148, 31948, 30665, 31758, 32023, 30378, 30159, 31705, 32188, 32041, 33242, 35098, 36445], [38858, 38120, 34238, 29535, 26847, 27359, 30248, 32693, 33413, 34552, 35678, 33271, 29386, 29191, 31603, 33603, 35953, 38088, 37643, 35223, 32265, 29279, 28415, 30694, 32653, 31870, 30998, 31977, 32424, 30761, 29827, 32970, 38486, 40881, 38574, 35362, 32714, 28683, 25198, 26601, 31336, 34287, 34654, 34230, 32987, 31248, 30854, 32102, 33485, 34294, 35155, 36967, 38767, 36869, 30723, 26275, 27340, 30272, 31464, 31920, 32507, 32242, 31581, 32049, 33834, 36205, 38169, 38398, 36326, 32994, 29942, 27976, 27814, 30095, 33094, 33767, 32461, 31933, 32228, 31557, 30621, 32136, 36191, 38880, 37865, 35697, 34415, 32290, 28869, 27383, 29330, 31643, 32025, 32056, 32644, 32071, 30289, 30257, 34052, 39452], [31749, 32400, 33066, 33336, 33840, 34119, 32978, 31602, 31794, 32619, 33041, 33641, 33902, 33224, 32744, 32569, 31759, 31057, 31346, 32179, 33319, 34290, 34048, 33149, 32981, 33133, 32802, 32612, 32788, 32679, 32570, 32710, 32245, 31451, 31592, 32328, 32867, 33572, 34271, 34228, 33724, 32988, 31873, 31475, 32429, 33028, 32440, 32243, 33129, 33859, 33280, 31655, 30808, 31977, 33696, 34084, 33579, 33281, 33090, 32749, 32484, 32403, 32526, 32853, 32978, 32509, 31902, 31856, 32312, 32892, 33441, 33704, 33505, 33002, 32420, 32157, 32526, 33084, 33267, 33228, 33256, 33247, 32883, 31935, 30960, 31007, 31986, 32962, 33633, 33866, 33579, 33430, 33482, 33024, 32679, 33282, 33584, 32591, 31562, 31314], [27397, 34087, 39526, 43556, 45305, 41052, 31893, 26815, 29018, 31570, 32000, 33822, 35374, 32413, 26137, 21794, 23253, 29538, 36247, 40877, 44061, 44237, 37988, 29463, 27403, 30577, 31997, 32408, 34380, 34613, 30652, 24957, 21910, 24390, 30841, 37092, 41600, 44794, 43833, 36432, 29061, 28458, 30699, 31320, 32510, 33957, 32442, 28366, 24450, 23810, 27831, 33495, 37860, 41824, 44715, 41771, 33226, 27675, 28943, 31229, 31855, 33529, 34990, 32649, 27170, 22883, 23518, 28422, 34046, 39072, 43804, 45214, 39501, 30942, 28194, 30690, 31875, 31873, 33416, 34073, 30996, 25693, 22439, 24392, 30309, 36272, 40722, 44347, 44310, 36914, 28236, 27593, 31747, 32985, 33082, 34749, 34167, 29134, 23246, 21346], [0, 0, 0, 14146, 52571, 65535, 65535, 65535, 51426, 46290, 44889, 46486, 54442, 57960, 42669, 9275, 0, 0, 0, 0, 25661, 65535, 65535, 65535, 65535, 50881, 44638, 41360, 43526, 51435, 51990, 33024, 0, 0, 0, 0, 0, 36746, 65535, 65535, 65535, 57934, 48649, 45860, 42325, 45295, 53486, 49747, 24128, 0, 0, 0, 0, 11159, 50188, 65535, 65535, 65535, 54898, 47782, 44825, 43502, 47803, 50173, 38074, 10374, 0, 0, 0, 0, 26239, 64286, 65535, 65535, 60811, 48252, 44325, 42311, 47262, 56637, 55881, 37089, 3495, 0, 0, 0, 0, 31602, 65535, 65535, 65535, 62058, 48381, 42988, 38261, 42164, 51574, 48655, 26556, 0]], "framecount": 1.0, "time": 1489540245206}
{"dataframe": [[31163, 31768, 32062, 32023, 32561, 33844, 34722, 34469, 33704, 33294, 33345, 33474, 33372, 32983, 32422, 31752, 31068, 30604, 30507, 30967, 32261, 34043, 35454, 35857, 34675, 32241, 30899, 31960, 33266, 33497, 34178, 34784, 33092, 30616, 30147, 30604, 30366, 30972, 33203, 34913, 35026, 34655, 34334, 33900, 33428, 32748, 32148, 32421, 32924, 32405, 31237, 30338, 30041, 30903, 32886, 34493, 34707, 34241, 34003, 33926, 33652, 33340, 33249, 33173, 32802, 32075, 31110, 30234, 29922, 30558, 32289, 34546, 35845, 35415, 34285, 33171, 31768, 30969, 31923, 33643, 34714, 34697, 33008, 30214, 29001, 30345, 32101, 33175, 34302, 35120, 34674, 33300, 32153, 31980, 32637, 33655, 34463, 33980, 32171, 30876], [39076, 37984, 35131, 32227, 29770, 27668, 27300, 29319, 31573, 32472, 32858, 33069, 32422, 31629, 32345, 34797, 37597, 39140, 38461, 35640, 31637, 27708, 25857, 27696, 31216, 32980, 33345, 33765, 32880, 30731, 30288, 32496, 35772, 38547, 39285, 37516, 34540, 31183, 27920, 26759, 28708, 31261, 32166, 32346, 32708, 32497, 31744, 31819, 33724, 36730, 38686, 38490, 36758, 33737, 29734, 26880, 27142, 29566, 31719, 32709, 33015, 32710, 31800, 31185, 32027, 34568, 37548, 39141, 38619, 36351, 32794, 28674, 25947, 26539, 29525, 32302, 33910, 34226, 32895, 31082, 30821, 32693, 35645, 37827, 38312, 37740, 35969, 32156, 27823, 25963, 27495, 30636, 32827, 33049, 32465, 32200, 32024, 32314, 34348, 37257], [29108, 29187, 30799, 33045, 35216, 36471, 35913, 34470, 33716, 33407, 33021, 33035, 33272, 32967, 32072, 30841, 29520, 28802, 29449, 31448, 33980, 35967, 36367, 35080, 33690, 33338, 33269, 33300, 34084, 34527, 33356, 31336, 29394, 27980, 28050, 29741, 32123, 34788, 37061, 37345, 35636, 33934, 33035, 32341, 32297, 33346, 34091, 33220, 31263, 29418, 28441, 28772, 30396, 32680, 35007, 36700, 36694, 35191, 33903, 33279, 32694, 32706, 33534, 33708, 32345, 30215, 28531, 28258, 29578, 31745, 34123, 36378, 37313, 35885, 33566, 32537, 32489, 32462, 32989, 34034, 34307, 33089, 30738, 28585, 28018, 28953, 30778, 33558, 36535, 37678, 36280, 34182, 33183, 33081, 33145, 33238, 33132, 32477, 31258, 29907], [36725, 35098, 32794, 31644, 30382, 29117, 30871, 33823, 33420, 31532, 31831, 32701, 32516, 32774, 33696, 34291, 34691, 34735, 33943, 32886, 31945, 31004, 30772, 31480, 32014, 32354, 33239, 33485, 32278, 31637, 32715, 33984, 34662, 35107, 34736, 33271, 31859, 31265, 31221, 31445, 31668, 31749, 32170, 33049, 33521, 33173, 32745, 32667, 32389, 32586, 35064, 37777, 36212, 31867, 29940, 30290, 30139, 29863, 30468, 31632, 33054, 34253, 34725, 35013, 35633, 35664, 34357, 32623, 31360, 30416, 29819, 29964, 30930, 32533, 34146, 34935, 34798, 34110, 33048, 32013, 31445, 31373, 32110, 33640, 34528, 34112, 33668, 33465, 32432, 31115, 30915, 31420, 31627, 31846, 32512, 33481, 34684, 35386, 34124, 31324], [41312, 38142, 34225, 31894, 29080, 26957, 28960, 32199, 31907, 30438, 31335, 32498, 32171, 32315, 33906, 35961, 37628, 38001, 36565, 34094, 31336, 28560, 27225, 28760, 31528, 32938, 33158, 33104, 32325, 31313, 31678, 33626, 36035, 37629, 37480, 35841, 33599, 31007, 28671, 28066, 29282, 30823, 32156, 33425, 33820, 32897, 31724, 31597, 32828, 34984, 37736, 39743, 38245, 33448, 29253, 27558, 27475, 28345, 29659, 31015, 32381, 33510, 34241, 34716, 35429, 36703, 37394, 36206, 33923, 31881, 30064, 28356, 27825, 29478, 32188, 33708, 33908, 34032, 33804, 32775, 32065, 32460, 33555, 34974, 36291, 36544, 35034, 32007, 28703, 27324, 29202, 32291, 33387, 32431, 31669, 32578, 34675, 35464, 33578, 31925], [31291, 31587, 32377, 33132, 33847, 34292, 33630, 32650, 32815, 33470, 33394, 32934, 32652, 32381, 32077, 31888, 31786, 31835, 32157, 32667, 33237, 33706, 33865, 33716, 33413, 32972, 32482, 32318, 32599, 32870, 32773, 32414, 32109, 32159, 32402, 32451, 32583, 33104, 33489, 33351, 33038, 32905, 32945, 32796, 32393, 32486, 33329, 34028, 33794, 32390, 30461, 29867, 31334, 33139, 33945, 34105, 34006, 33892, 34056, 33895, 32774, 31631, 31561, 31876, 31677, 31582, 32110, 32712, 33218, 33783, 33953, 33634, 33353, 33039, 32415, 31948, 32084, 32541, 32897, 33177, 33495, 33441, 32717, 31979, 31791, 31785, 31849, 32515, 33603, 34038, 33525, 32982, 32812, 32687, 32955, 33561, 33238, 32143, 31938, 32566], [24980, 31708, 38292, 43441, 46032, 42754, 33733, 27264, 28535, 31729, 32454, 33506, 34807, 32495, 26730, 22364, 23492, 28944, 34513, 38858, 42893, 44355, 39424, 31307, 28272, 30589, 31981, 32309, 34278, 34942, 31205, 25463, 22407, 24429, 29746, 35121, 39921, 44284, 44530, 37593, 29526, 28218, 30813, 31503, 32231, 34685, 34713, 30064, 24402, 22763, 26005, 31075, 36123, 41393, 45093, 42767, 34456, 28506, 29854, 32479, 32300, 32878, 34342, 32472, 27090, 22472, 22644, 27664, 34060, 39357, 43537, 45221, 40938, 32414, 27759, 29244, 31026, 31405, 32992, 34176, 31698, 26664, 23728, 25923, 31045, 35325, 38785, 42639, 43605, 37719, 29614, 27503, 30216, 32083, 33554, 35469, 34491, 29615, 24313, 22862], [0, 0, 0, 3285, 41705, 65535, 65535, 65535, 58721, 49786, 45328, 43677, 48916, 54209, 44547, 15009, 0, 0, 0, 0, 17210, 57962, 65535, 65535, 64904, 49737, 45527, 43926, 47217, 56165, 57233, 38349, 4566, 0, 0, 0, 0, 25105, 63027, 65535, 65535, 62194, 53369, 50843, 48590, 50831, 55343, 49368, 26081, 0, 0, 0, 0, 1852, 40417, 65535, 65535, 65535, 56032, 45942, 41812, 42298, 51418, 58357, 47884, 19416, 0, 0, 0, 0, 12420, 51816, 65535, 65535, 65535, 53993, 48812, 45101, 44512, 50682, 53454, 39647, 9102, 0, 0, 0, 0, 24338, 62886, 65535, 65535, 62232, 51870, 48477, 45971, 48723, 55192, 51699, 29348, 0]], "framecount": 2.0, "time": 1489540245331}
{"dataframe": [[30888, 31094, 31306, 32253, 33523, 34279, 34318, 33745, 33054, 32674, 32420, 32467, 33283, 34256, 34297, 33243, 31620, 30133, 29679, 30611, 32166, 33499, 34432, 34788, 34333, 33431, 32834, 32872, 33173, 33302, 33303, 33072, 32238, 31225, 30804, 30800, 30921, 31791, 33714, 35480, 35535, 33943, 32369, 32038, 32635, 33392, 34007, 34130, 33185, 31200, 29279, 29013, 30913, 33548, 35188, 35364, 34271, 32700, 32190, 33014, 33549, 33095, 32778, 33154, 33398, 32817, 31763, 31054, 30935, 31155, 31768, 32803, 33703, 34096, 34269, 34365, 34081, 33448, 33019, 32894, 32399, 31336, 30680, 31170, 32133, 32676, 32865, 33124, 33563, 33838, 33455, 32883, 33090, 33468, 32947, 32649, 33657, 34024, 32283, 30520], [38461, 37621, 35997, 33380, 29604, 26799, 27169, 29881, 32140, 32911, 33292, 33516, 32600, 30926, 30761, 33547, 37499, 39405, 38368, 35754, 32591, 29240, 26915, 27310, 30024, 32482, 33209, 32828, 32203, 31684, 31545, 32544, 35208, 38048, 38992, 37979, 35581, 31760, 27629, 25770, 27632, 31234, 33309, 33620, 33487, 32155, 29792, 29864, 33978, 38717, 40289, 38669, 35697, 32419, 29316, 27114, 27088, 29670, 32577, 33432, 33018, 32625, 31706, 30445, 30874, 33980, 37834, 39743, 39127, 36910, 33383, 28901, 25814, 26565, 29830, 32109, 32674, 32897, 32772, 32000, 31595, 32545, 35042, 38068, 39469, 38280, 35455, 31702, 27573, 25451, 27432, 31219, 32848, 32685, 33173, 33412, 31958, 30962, 32794, 36252], [29098, 29096, 29901, 31918, 34939, 37107, 36845, 35009, 33560, 33158, 33203, 33143, 32965, 32931, 32698, 31361, 29341, 28413, 29241, 31078, 33337, 35516, 36606, 35944, 34280, 33202, 33275, 33525, 33328, 33446, 33819, 32522, 29376, 27491, 28511, 30534, 32253, 34266, 36233, 36689, 35380, 33759, 33117, 33138, 32983, 32984, 33684, 33818, 31825, 29003, 28049, 29242, 30955, 32511, 34259, 35918, 36343, 35273, 34085, 33655, 33431, 33162, 33087, 32978, 32386, 30968, 29123, 28281, 29180, 31099, 33412, 35911, 37500, 36743, 34249, 32393, 32128, 32531, 33149, 33907, 33980, 32803, 30750, 28740, 28073, 29356, 31684, 34107, 36338, 37126, 35257, 32674, 32329, 33662, 34388, 34301, 34034, 33070, 30965, 28672], [30471, 33531, 36528, 34934, 31048, 29779, 31098, 32252, 32811, 33078, 32122, 30511, 30863, 33818, 36388, 36063, 34364, 33621, 33183, 31955, 30777, 30469, 30905, 31893, 32888, 33187, 33095, 33260, 33369, 32995, 32591, 32783, 33639, 34515, 34357, 33031, 31892, 31687, 31398, 30794, 31228, 32679, 33733, 34185, 34378, 33620, 31697, 30075, 30494, 33557, 37021, 36842, 33804, 32537, 32355, 30297, 28868, 30212, 31882, 32704, 33063, 32575, 33114, 36035, 37552, 35352, 32753, 31694, 30846, 30302, 30687, 31119, 31574, 32759, 33881, 34260, 34579, 34567, 33261, 31586, 30986, 31300, 32250, 33848, 34893, 34366, 33228, 32477, 31703, 31051, 31572, 32824, 33176, 32486, 32247, 33097, 33686, 32913, 31815, 31956], [33553, 36471, 37042, 34961, 31643, 28579, 27890, 29853, 32141, 33053, 32123, 30179, 30515, 34395, 37225, 36003, 34649, 35779, 36278, 34338, 31582, 28922, 27339, 28699, 31860, 33559, 33619, 33520, 32801, 31440, 31123, 32470, 34936, 37551, 38190, 36019, 33357, 31566, 29399, 27510, 28333, 31198, 33400, 34304, 34416, 33193, 30333, 27763, 29401, 36979, 44171, 42583, 35549, 31769, 29816, 26050, 24840, 28066, 31018, 32275, 33430, 33904, 34142, 35351, 35921, 35371, 35557, 35675, 34170, 32448, 31195, 29271, 27856, 29045, 31562, 33217, 34294, 34844, 33672, 31541, 30558, 31656, 34505, 37332, 38104, 36667, 33903, 30780, 28675, 28236, 29033, 30709, 32573, 33431, 33407, 33613, 33504, 32213, 31582, 33541], [32483, 31378, 30682, 31882, 34278, 35332, 34349, 33158, 32635, 32370, 32671, 33269, 32830, 31813, 31830, 32310, 32105, 32030, 32718, 33356, 33539, 33506, 33300, 33079, 32958, 32718, 32530, 32688, 32782, 32646, 32797, 32905, 32181, 31448, 31911, 32847, 33089, 33068, 33585, 34056, 33481, 32453, 32351, 32890, 32745, 32258, 32798, 33736, 33166, 31359, 30544, 31570, 33012, 33532, 33496, 33701, 33818, 33395, 33051, 33145, 33008, 32424, 31986, 31995, 32229, 32361, 32301, 32215, 32265, 32623, 33382, 34149, 34272, 33561, 32579, 32112, 32231, 32366, 32426, 32789, 33258, 33285, 32791, 32087, 31651, 31911, 32603, 33075, 33389, 33667, 33347, 32704, 32829, 33419, 33364, 32788, 32434, 32396, 32318, 31918], [26414, 31765, 36092, 40226, 44028, 42894, 35173, 28532, 28993, 31772, 32514, 33623, 35016, 33191, 27924, 22731, 22050, 26957, 33645, 38939, 43070, 44959, 40989, 32607, 27928, 29599, 31659, 32068, 33763, 34939, 31690, 25587, 21821, 23562, 29534, 35948, 40717, 44252, 44835, 38808, 29749, 26789, 29847, 31733, 32410, 34760, 35365, 30970, 24546, 21298, 23825, 30646, 37646, 42077, 44264, 43022, 36299, 29449, 29264, 31868, 31875, 32150, 33927, 32994, 28151, 23032, 22218, 26896, 33253, 38150, 42600, 45855, 42945, 34051, 28045, 29033, 30959, 30867, 32078, 34015, 32632, 27705, 23307, 23611, 28647, 34712, 39595, 43793, 45276, 39788, 30609, 27153, 29931, 31954, 32502, 33956, 33968, 30308, 25056, 22376], [0, 0, 0, 2883, 38326, 65535, 65535, 65535, 54237, 46219, 44529, 43777, 49701, 57511, 50923, 23724, 0, 0, 0, 0, 10123, 47834, 65535, 65535, 65535, 54201, 46052, 43327, 46789, 54338, 53722, 37835, 10906, 0, 0, 0, 0, 24890, 62241, 65535, 65535, 65479, 51908, 48401, 43955, 41265, 47200, 49904, 33141, 412, 0, 0, 0, 3563, 39964, 65535, 65535, 65535, 58898, 47483, 43167, 41800, 46797, 54850, 51454, 26262, 0, 0, 0, 0, 6909, 58674, 65535, 65535, 65535, 53819, 35385, 25497, 28281, 44127, 56049, 46831, 17230, 0, 0, 0, 0, 21877, 65535, 65535, 65535, 51724, 37603, 37969, 41991, 53447, 65535, 65535, 38889, 0]], "framecount": 3.0, "time": 1489540245410}
{"dataframe": [[30370, 30809, 31456, 32841, 34248, 34939, 35041, 34335, 32938, 31916, 31741, 32037, 32522, 32933, 33232, 33657, 33550, 32092, 30530, 30560, 31502, 32275, 33398, 34681, 34731, 33747, 33168, 33182, 33230, 33284, 33273, 32977, 32370, 31416, 30734, 31211, 31868, 31370, 31168, 32748, 34482, 34899, 34912, 35022, 34524, 33544, 32969, 32821, 32285, 31101, 29843, 29142, 29672, 31677, 34018, 35284, 35332, 34874, 34371, 33734, 32957, 32372, 32148, 32449, 33131, 32769, 30677, 29194, 30413, 32787, 34098, 34679, 35205, 34740, 33060, 31795, 31793, 32117, 32289, 32959, 34009, 34324, 33572, 32404, 31275, 30494, 30630, 31623, 32616, 33368, 34153, 34510, 34134, 33802, 33666, 33007, 32426, 32871, 33067, 31806], [38629, 38897, 37502, 34586, 30240, 26370, 25934, 29019, 32010, 32556, 32311, 32906, 33243, 32512, 32207, 33649, 36043, 37926, 38484, 37071, 33660, 29636, 26933, 26850, 29029, 31414, 32678, 33325, 33555, 32775, 31359, 31093, 33719, 38241, 40544, 38340, 34347, 31587, 29450, 27560, 27916, 30252, 31721, 31937, 32162, 32009, 31479, 31944, 33770, 36322, 38812, 39802, 38110, 34311, 30066, 26915, 26253, 28321, 31078, 32410, 32502, 32425, 32449, 32565, 33043, 34379, 36681, 38689, 38558, 36151, 32889, 29361, 26110, 25719, 29323, 33323, 34406, 33705, 32802, 31340, 30191, 31486, 35035, 38290, 39394, 38205, 35354, 31877, 29017, 27578, 27797, 29363, 31353, 32833, 33375, 32886, 31735, 31160, 32709, 36171], [27729, 28681, 30831, 33300, 35562, 36923, 36458, 34300, 32220, 31799, 32838, 34113, 34713, 34541, 33628, 31451, 28543, 27222, 28437, 30645, 32939, 35462, 37054, 36387, 34601, 33702, 33537, 32909, 32312, 32945, 34056, 33578, 31227, 28984, 28208, 28584, 29949, 32535, 35637, 37695, 37572, 35779, 34018, 33004, 32249, 31802, 32015, 32399, 32188, 31276, 30104, 29281, 29529, 31295, 33981, 36171, 36795, 35800, 34192, 33217, 32973, 32652, 32318, 32733, 33230, 32281, 30450, 29668, 29932, 30148, 30996, 33494, 36151, 36700, 35437, 34156, 33371, 32943, 33208, 33781, 33613, 32434, 30634, 28977, 28540, 29468, 30875, 32610, 35116, 37248, 36982, 34836, 33296, 32884, 32603, 32660, 33280, 33411, 32386, 30788], [33751, 35906, 35650, 32572, 30219, 30452, 31267, 31620, 32441, 33769, 34861, 34814, 32898, 30387, 29713, 31636, 34738, 36365, 35130, 33041, 32326, 32090, 31320, 31146, 31619, 31310, 31173, 33161, 35568, 35303, 33138, 32146, 32794, 33121, 32596, 32494, 32884, 32690, 32006, 31698, 32378, 33884, 34418, 32782, 30860, 30825, 32208, 33378, 33589, 33253, 33321, 34253, 35159, 34493, 32128, 29703, 29104, 31285, 34572, 35400, 33483, 31978, 31634, 31202, 31591, 33184, 33609, 32846, 34006, 36555, 36293, 32773, 29747, 29115, 30043, 31892, 33835, 34249, 33022, 31971, 32134, 32964, 33802, 34224, 33983, 33490, 33359, 33331, 32340, 30504, 30058, 31881, 33554, 33657, 33375, 32814, 31853, 32433, 34063, 33220], [36777, 38543, 37166, 33379, 29947, 28454, 28403, 29453, 31273, 32656, 33104, 33319, 33528, 33054, 32232, 33274, 36307, 37535, 35454, 33086, 31905, 30655, 29409, 29401, 30579, 31884, 32963, 34116, 34645, 33455, 31450, 31005, 32937, 35341, 36123, 35718, 35117, 33316, 30118, 28357, 29932, 32681, 33652, 32596, 31061, 30645, 31716, 32842, 33309, 34355, 36170, 37359, 37112, 35112, 31570, 28230, 27466, 30059, 33533, 34115, 31870, 30309, 30474, 31036, 32529, 35210, 36614, 36330, 37080, 38269, 36117, 30796, 26502, 25721, 27805, 30957, 33465, 34267, 33417, 32202, 31917, 32904, 35061, 37368, 37849, 36122, 34132, 32672, 29934, 26350, 26401, 30891, 34349, 34081, 33007, 32706, 32485, 32852, 33606, 33576], [31406, 31475, 32390, 33532, 34264, 34499, 34174, 33275, 32290, 31689, 31598, 32186, 33131, 33490, 33173, 32710, 31971, 31338, 31835, 32903, 33460, 33936, 34293, 33508, 32333, 32328, 32811, 32477, 32004, 32416, 33141, 33281, 32911, 32387, 31874, 31740, 32217, 32926, 33522, 34000, 34025, 33288, 32429, 32252, 32525, 32620, 32575, 32743, 33084, 33129, 32450, 31371, 31018, 32019, 33564, 34479, 34402, 33561, 32564, 32265, 32711, 32950, 32663, 32512, 32539, 32376, 32431, 32662, 32184, 31491, 32034, 33499, 34416, 34440, 33931, 32897, 31794, 31612, 32316, 32928, 33097, 32968, 32560, 32202, 32196, 32283, 32413, 32864, 33378, 33632, 33752, 33579, 32851, 31955, 31599, 32156, 33157, 33641, 33419, 32973], [24768, 30615, 36663, 41626, 45005, 43985, 36779, 29215, 28108, 30370, 30927, 31896, 34216, 33951, 29760, 24515, 22532, 26279, 32856, 37854, 41580, 44838, 43045, 34533, 27874, 28866, 31591, 31741, 32466, 33946, 32465, 27582, 22997, 23166, 28506, 34730, 39273, 43266, 45217, 40681, 31781, 27340, 29337, 31528, 32035, 33314, 33935, 30936, 25642, 22973, 25630, 30930, 35681, 40087, 44197, 44421, 37759, 29259, 27055, 30033, 32051, 32862, 34054, 33654, 29898, 24593, 22711, 26906, 33098, 36977, 40234, 44056, 43144, 35065, 28145, 28617, 31124, 31646, 33251, 35369, 33644, 27989, 22669, 22315, 27474, 33881, 38758, 43049, 45365, 41319, 32515, 27418, 28632, 30634, 31691, 34045, 35583, 32751, 26777, 22692], [0, 0, 0, 0, 35229, 65535, 65535, 65535, 55623, 48098, 49380, 47824, 46533, 47824, 43378, 24288, 0, 0, 0, 0, 10529, 44735, 65535, 65535, 63051, 45238, 44314, 50878, 55697, 60453, 60967, 45544, 11882, 0, 0, 0, 0, 19307, 58882, 65535, 65535, 61945, 47748, 47611, 49161, 51020, 56871, 57159, 39002, 4385, 0, 0, 0, 0, 25223, 63537, 65535, 65535, 65535, 53787, 49656, 47710, 50998, 57982, 52664, 24372, 0, 0, 0, 0, 4565, 44275, 65535, 65535, 65535, 58739, 49326, 47954, 47955, 50753, 52524, 41482, 13132, 0, 0, 0, 0, 14365, 53478, 65535, 65535, 65535, 56593, 48723, 45609, 46863, 52743, 52835, 36350, 4992]], "framecount": 4.0, "time": 1489540245503}
{"dataframe": [[30559, 30714, 31463, 31931, 32459, 33558, 34954, 35696, 35231, 33670, 31526, 30368, 31219, 32511, 32992, 33416, 33525, 32556, 31785, 32113, 32405, 32397, 32967, 33578, 33296, 32736, 32632, 32759, 32990, 33454, 33930, 34029, 33405, 32075, 30924, 30816, 31407, 31957, 32416, 32917, 33419, 34061, 34585, 34035, 32751, 32565, 33434, 33565, 32858, 32260, 31608, 30792, 30621, 31402, 32527, 33659, 34661, 34781, 33590, 32087, 31713, 32641, 33893, 34799, 34862, 33312, 30973, 29969, 30283, 30484, 30988, 32681, 34530, 35106, 34505, 33813, 33735, 33933, 33759, 33286, 32754, 32005, 31223, 30694, 30256, 30272, 31394, 33116, 34557, 35465, 35299, 33771, 32357, 32367, 32884, 33050, 33413, 33706, 32988, 31731], [38909, 38902, 36930, 34473, 31586, 28147, 25920, 27042, 30468, 33070, 33901, 33988, 33427, 31925, 30974, 32645, 36195, 38558, 38252, 36128, 33290, 30408, 28181, 27690, 29373, 31571, 32487, 32657, 32878, 32353, 31082, 31158, 33987, 37859, 39738, 38614, 35656, 32185, 29035, 27260, 27838, 29920, 31290, 31713, 32833, 34185, 33474, 31347, 31596, 35304, 38716, 38735, 36362, 33510, 30809, 28710, 27995, 29130, 31313, 32900, 33231, 32612, 31513, 31023, 31783, 33089, 34919, 37754, 39814, 38563, 34463, 30099, 27429, 27488, 29739, 31618, 31669, 31392, 31888, 31962, 31245, 31805, 34830, 38336, 39893, 39112, 36512, 32701, 28792, 26183, 26252, 29128, 32480, 33847, 33262, 31973, 30952, 31145, 32898, 35530], [29577, 29235, 29672, 30803, 32760, 35216, 36811, 36365, 34810, 33895, 33596, 33125, 32778, 32914, 32749, 31377, 29393, 28492, 29264, 30834, 32650, 34758, 36509, 36655, 35153, 33535, 32760, 32433, 32555, 33471, 34246, 33521, 31391, 29218, 28270, 28841, 30459, 32753, 35323, 36900, 36373, 34680, 33647, 33460, 33270, 33053, 33263, 33403, 32164, 29670, 28168, 28793, 30209, 31760, 34134, 36489, 36942, 35616, 34193, 33227, 32338, 32121, 33120, 34125, 33754, 32053, 29864, 28322, 28371, 29941, 32285, 34770, 36711, 37055, 35466, 33471, 32681, 32684, 32692, 33179, 34090, 33913, 31837, 29170, 27736, 28158, 30149, 33004, 35645, 37034, 36633, 34953, 33440, 32919, 32937, 33031, 33336, 33739, 33207, 30944], [31191, 32580, 35648, 35627, 33596, 32308, 31114, 29940, 30039, 31388, 33394, 34657, 33601, 31736, 31822, 33502, 34702, 34776, 34328, 33883, 33237, 31854, 30162, 29581, 30592, 32122, 33474, 34710, 34989, 33625, 32012, 31540, 31803, 32720, 34565, 35644, 34424, 32303, 30890, 30012, 30138, 32391, 35174, 35199, 32815, 31417, 31580, 31617, 32087, 33678, 34593, 34218, 33974, 33644, 32298, 31147, 31677, 32951, 32904, 31963, 32298, 33008, 31968, 30948, 32126, 34088, 35142, 35131, 34125, 32644, 31464, 31094, 31943, 33302, 33559, 32716, 32219, 32206, 31807, 31482, 32010, 32628, 33022, 34280, 35846, 35604, 33444, 31107, 30064, 31089, 33282, 34453, 33777, 31876, 30022, 30288, 32694, 34082, 33549, 33751], [34358, 37170, 38104, 34518, 30419, 29056, 28902, 29297, 30780, 32206, 33248, 34194, 33370, 30992, 30816, 33729, 36117, 36348, 36551, 37023, 35072, 30421, 26724, 27300, 31075, 33415, 32790, 32473, 32991, 31659, 29926, 31268, 34750, 37519, 38603, 37793, 35485, 32699, 29585, 26833, 26992, 30591, 33900, 33986, 32543, 31916, 31676, 31474, 32685, 35296, 37111, 37073, 36051, 34591, 32477, 30027, 28817, 29819, 31082, 31104, 31565, 32550, 32018, 30892, 31588, 34503, 38059, 39150, 36705, 33982, 32864, 31209, 28815, 28555, 30421, 31718, 32173, 32618, 32373, 31864, 32135, 32270, 32653, 35412, 38820, 38900, 35889, 32461, 29612, 28196, 29094, 31021, 32055, 31838, 31239, 31554, 32878, 33534, 33365, 34426], [32289, 31484, 31495, 32386, 33050, 33374, 33789, 33683, 32934, 32449, 32459, 32782, 33336, 33500, 32930, 32240, 31884, 31720, 31692, 32036, 32770, 33480, 33913, 34117, 33873, 33045, 32183, 31902, 32249, 32811, 33032, 32784, 32533, 32478, 32233, 31865, 32125, 33090, 33898, 34078, 33741, 32922, 32011, 31794, 32299, 32882, 33296, 33459, 33127, 32563, 32224, 31917, 31666, 32183, 33255, 33656, 33195, 32874, 33118, 33231, 32762, 32567, 33311, 33843, 33012, 31729, 31371, 31650, 31770, 32202, 33371, 34168, 33801, 33101, 32773, 32733, 33016, 33260, 32740, 32019, 32381, 33358, 33313, 32260, 31482, 31331, 31727, 32818, 33945, 34291, 34075, 33570, 32818, 32441, 32634, 32498, 31953, 32143, 32953, 32951], [24079, 29165, 34262, 39075, 43907, 44899, 38689, 30343, 27756, 29917, 31482, 32682, 34736, 34909, 30979, 24758, 21512, 24688, 31285, 36955, 41529, 44983, 43491, 35578, 28217, 27821, 30615, 31723, 33049, 35215, 34385, 29207, 23538, 22621, 27159, 32876, 37180, 41192, 44102, 41679, 34204, 29251, 30169, 31890, 32185, 33312, 34005, 31364, 26158, 22307, 23533, 29238, 35300, 39820, 43602, 44668, 39164, 30570, 27745, 30595, 32111, 32306, 34193, 34679, 30644, 24707, 21698, 24047, 30251, 37083, 42471, 45208, 43065, 35452, 28509, 28551, 31856, 32657, 32833, 34065, 33156, 28612, 23479, 22502, 26969, 33066, 37768, 41792, 44585, 42140, 34310, 28630, 29280, 31337, 31936, 33203, 34088, 31903, 27220, 23115], [0, 0, 0, 0, 23765, 62550, 65535, 65535, 65535, 53515, 47965, 43535, 44135, 50362, 50030, 32152, 459, 0, 0, 0, 0, 31147, 65535, 65535, 65535, 60073, 51865, 50968, 51104, 54047, 56906, 48603, 21744, 0, 0, 0, 0, 4752, 49514, 65535, 65535, 65535, 56087, 49014, 44561, 43157, 49469, 54143, 42607, 12745, 0, 0, 0, 0, 23478, 63539, 65535, 65535, 60039, 40534, 39214, 43474, 48571, 56854, 58264, 40104, 6877, 0, 0, 0, 0, 30261, 65456, 65535, 65535, 60667, 51176, 49829, 48442, 50252, 55806, 51239, 25195, 0, 0, 0, 0, 4427, 42949, 65535, 65535, 65535, 58173, 49430, 45829, 45326, 51342, 55836, 44159, 14113]], "framecount": 5.0, "time": 1489540245613}
{"dataframe": [[30862, 30510, 30928, 32212, 33196, 33052, 33095, 34302, 34798, 33276, 31971, 32783, 34286, 34750, 34204, 32924, 31107, 29729, 29595, 30504, 32044, 33596, 34206, 34076, 34395, 34776, 33859, 32489, 32219, 32213, 31896, 32584, 33616, 33033, 31857, 31722, 31762, 31579, 32231, 33439, 33978, 33761, 33380, 33104, 32935, 32826, 32918, 33449, 33962, 33451, 31920, 30634, 30506, 31285, 32253, 32961, 33437, 33845, 34106, 34011, 33471, 32727, 32421, 32888, 33524, 33509, 32917, 32347, 31672, 30572, 29991, 31055, 33019, 34214, 34156, 33554, 33389, 34138, 34957, 34600, 33398, 32592, 32098, 30975, 29645, 29547, 30842, 32411, 33725, 34903, 35426, 34533, 32849, 32201, 33213, 34135, 33257, 31733, 31916, 33297], [38069, 39389, 38465, 35573, 31894, 28169, 25804, 26845, 30339, 32907, 33671, 33581, 32441, 30878, 30900, 33083, 36486, 39475, 39707, 36509, 32403, 29801, 28491, 28037, 29038, 30923, 32397, 33372, 33553, 32138, 30413, 30964, 34022, 37287, 38804, 38242, 36151, 33309, 30304, 27782, 27295, 29490, 31950, 32474, 32210, 32445, 32344, 31683, 32023, 34371, 37518, 39240, 38506, 35854, 32225, 28651, 26766, 27712, 30224, 31981, 32575, 32833, 32734, 31967, 31320, 32464, 35689, 38539, 38765, 37015, 34851, 32368, 29123, 26648, 27390, 30397, 32355, 32537, 32173, 31610, 31228, 32037, 34512, 37955, 40218, 39303, 36039, 32642, 29454, 26541, 26044, 28829, 32061, 33328, 33149, 32535, 32139, 32412, 32812, 33544], [28324, 27718, 29166, 31036, 33205, 35975, 37597, 36654, 34622, 33322, 32714, 32535, 33006, 33697, 33661, 32193, 29621, 27779, 28226, 30350, 32680, 34791, 36523, 36818, 35213, 33276, 32590, 32782, 33125, 33713, 34141, 33444, 31543, 29417, 28174, 28470, 30245, 32718, 35067, 36664, 36650, 35026, 33418, 32933, 33065, 33350, 33779, 33783, 32525, 30246, 28475, 28337, 29472, 31206, 33471, 35984, 37405, 36453, 34126, 32731, 32614, 32750, 33159, 33855, 33821, 32454, 30248, 28398, 28186, 29675, 31728, 33880, 36176, 37266, 35965, 33937, 33214, 33231, 33083, 33266, 33665, 33019, 30899, 28598, 27857, 29116, 31336, 33447, 35335, 36767, 36537, 34580, 32992, 32824, 33007, 33207, 33746, 33688, 32312, 30465], [34726, 33836, 31833, 31624, 33052, 34282, 34743, 33952, 31919, 30435, 30137, 29886, 30321, 32210, 33742, 34393, 35627, 36631, 35719, 33557, 31592, 30709, 31223, 32057, 31853, 31201, 31588, 32778, 33172, 32531, 32461, 33609, 34421, 33925, 33436, 33937, 34256, 33235, 31566, 30588, 30697, 31510, 32686, 33724, 33542, 31749, 30097, 31367, 35598, 38208, 35887, 32249, 31468, 31942, 31442, 30616, 30110, 30712, 33230, 35737, 35836, 34205, 32503, 31290, 30859, 31272, 32285, 33632, 34515, 34293, 33842, 33858, 33137, 31443, 30725, 31223, 31352, 31250, 31981, 33531, 35008, 35119, 34047, 33529, 33481, 32580, 31737, 32143, 32272, 31304, 31416, 33031, 33472, 32379, 32108, 32724, 32474, 32044, 33436, 35606], [36348, 36514, 35305, 34721, 33540, 30598, 28826, 29877, 31097, 31239, 31380, 31296, 31186, 32058, 33075, 34107, 36545, 38844, 38213, 35453, 32673, 30154, 28159, 27876, 29350, 31135, 32557, 33796, 33987, 32686, 31744, 32614, 34187, 35092, 35831, 36979, 36894, 33893, 29594, 27204, 27781, 30290, 33195, 34467, 32998, 30697, 30173, 31826, 34842, 37392, 37257, 35514, 34849, 34458, 32371, 29306, 27257, 27929, 31269, 34312, 34752, 33539, 32074, 31045, 31406, 33142, 35156, 36547, 36467, 35077, 33886, 32933, 31045, 29352, 29633, 30441, 29920, 29739, 32012, 35014, 35302, 33508, 33602, 35716, 36627, 36054, 35101, 33076, 30190, 28277, 28341, 29883, 31495, 32374, 33136, 33509, 32115, 30805, 33454, 38165], [32159, 32033, 32789, 33165, 32771, 32592, 33007, 33318, 33199, 32961, 32919, 33267, 33560, 33099, 32389, 32111, 31753, 31295, 31599, 32519, 33205, 33454, 33516, 33651, 33873, 33754, 32974, 32090, 31945, 32406, 32697, 32633, 32513, 32425, 32296, 32155, 32265, 32857, 33579, 33891, 33725, 33179, 32437, 32047, 32323, 32949, 33487, 33506, 32736, 31779, 31506, 31822, 32250, 32682, 33107, 33696, 34329, 34017, 32630, 31803, 32253, 32794, 32825, 32820, 32900, 32964, 32878, 32311, 31682, 31944, 32719, 32928, 33001, 33579, 33663, 32909, 32714, 33248, 33156, 32433, 32236, 32674, 32911, 32503, 31882, 31833, 32367, 32850, 33226, 33618, 33570, 33080, 32832, 32833, 32738, 32908, 33300, 32998, 32083, 31671], [23497, 28941, 35018, 38991, 42548, 44452, 39882, 31502, 28306, 30443, 31382, 31653, 33931, 34743, 31191, 25482, 22083, 24403, 30880, 36748, 40683, 43767, 43278, 36463, 29131, 28533, 31516, 32480, 33107, 34690, 33822, 28883, 22995, 21538, 26319, 32929, 37583, 41614, 45274, 43582, 35074, 28047, 28217, 30449, 31221, 33284, 35479, 33520, 27703, 22535, 22618, 28087, 34359, 38753, 42595, 44829, 40855, 32133, 27574, 29583, 31754, 32303, 34004, 34876, 31624, 25900, 22280, 23840, 29476, 35477, 40090, 43773, 44356, 38496, 30433, 28292, 30825, 31895, 32224, 33752, 33546, 29746, 24599, 22254, 25314, 31637, 37383, 41910, 45252, 43771, 35714, 28247, 27953, 30561, 31302, 32653, 34940, 33908, 28564, 23099], [0, 0, 0, 0, 15647, 56505, 65535, 65535, 65535, 52658, 48513, 46603, 48256, 56355, 58506, 39838, 3130, 0, 0, 0, 0, 25749, 65535, 65535, 65535, 65535, 53809, 49254, 46064, 48590, 54997, 50140, 24976, 0, 0, 0, 0, 2353, 42879, 65535, 65535, 65535, 57899, 48520, 45265, 44462, 50958, 57784, 48442, 17784, 0, 0, 0, 0, 11157, 54054, 65535, 65535, 65535, 56181, 49276, 45669, 45889, 52512, 54478, 38118, 4413, 0, 0, 0, 0, 26082, 65535, 65535, 65535, 65535, 51610, 46715, 44584, 47927, 54833, 51373, 28170, 0, 0, 0, 0, 0, 38938, 65535, 65535, 65535, 61147, 49824, 45373, 43436, 48047, 53957, 46312, 18779]], "framecount": 6.0, "time": 1489540245706}
{"dataframe": [[33178, 31289, 29965, 30258, 31611, 33521, 34809, 34461, 33676, 33761, 33897, 33302, 32693, 32677, 32973, 33033, 32484, 31618, 31111, 31152, 31560, 32018, 32355, 32962, 33783, 34294, 34816, 35229, 34416, 32862, 32182, 32159, 31750, 31220, 30975, 30771, 30999, 32161, 33476, 34194, 34649, 34801, 34115, 33013, 32408, 32580, 33242, 33629, 33051, 31897, 30948, 30319, 30180, 31084, 32941, 34802, 35612, 34895, 33375, 32579, 33005, 33299, 32429, 31755, 32638, 33578, 32992, 32030, 31644, 31035, 30561, 31624, 33736, 35198, 34993, 33129, 31453, 31915, 33369, 33943, 34213, 34667, 34111, 32378, 30847, 30202, 30160, 30478, 31138, 32433, 34260, 35366, 35065, 34381, 33960, 33461, 33201, 33346, 33008, 31965], [36139, 39493, 39810, 36297, 31822, 28199, 26168, 27315, 30782, 32763, 32426, 32226, 32475, 31888, 31336, 32692, 35886, 38713, 39178, 37460, 34666, 31289, 28238, 27092, 28275, 30454, 32059, 32653, 32674, 32411, 31858, 31654, 33229, 36609, 39253, 39057, 36692, 33617, 30312, 27389, 26403, 28246, 31458, 33598, 33832, 32780, 31219, 30334, 31647, 35223, 38694, 39614, 38103, 35551, 32300, 28572, 26131, 26912, 30136, 32794, 33466, 33299, 33020, 32075, 30974, 31641, 34668, 38010, 39327, 38294, 35667, 31847, 27903, 26184, 27759, 30667, 32520, 33041, 32926, 32426, 31698, 31456, 32979, 36232, 38655, 38532, 37099, 35006, 31374, 27446, 26166, 27997, 30654, 32488, 33472, 33515, 32462, 31324, 31600, 33761], [29128, 28625, 29228, 31069, 33676, 36199, 37384, 36078, 33416, 32205, 32817, 33357, 33418, 33699, 33740, 32642, 30541, 28712, 28435, 29660, 31518, 33701, 35870, 36772, 35804, 34139, 33067, 32762, 32977, 33405, 33655, 33456, 32369, 30189, 28193, 28152, 29926, 32135, 34441, 36624, 37113, 35364, 33423, 32812, 32873, 33089, 33633, 34020, 33361, 31355, 28928, 27791, 28650, 30667, 32988, 35355, 36965, 36681, 34994, 33579, 32862, 32486, 32785, 33630, 33886, 32789, 30571, 28513, 28204, 29671, 31581, 33495, 35629, 36879, 36072, 34331, 33362, 33054, 32865, 33075, 33599, 33581, 32245, 29912, 28289, 28468, 29727, 31704, 34702, 37146, 36783, 34558, 33328, 33399, 33327, 33247, 33731, 33947, 33019, 31120], [35640, 33943, 33073, 32495, 30782, 29583, 30112, 31464, 33521, 35363, 34677, 32403, 31380, 31434, 31917, 33681, 35737, 36172, 34916, 32628, 30358, 29443, 29927, 31102, 32414, 33268, 33884, 34693, 34883, 34026, 32950, 31839, 30804, 31276, 33285, 34259, 33561, 33370, 33388, 31670, 30160, 31565, 34069, 34889, 33935, 32210, 30979, 31173, 32057, 32740, 33647, 34602, 34438, 33464, 32998, 32798, 32119, 31562, 31603, 31873, 32440, 33142, 33014, 32242, 32146, 32962, 33911, 34319, 33680, 32256, 31626, 33122, 35149, 34512, 31794, 30439, 30621, 30782, 31598, 32935, 33142, 33041, 34180, 35309, 35084, 34364, 33676, 32027, 29395, 28245, 30785, 34885, 36107, 34166, 32477, 32330, 32428, 31895, 31232, 31674], [39074, 36533, 34805, 33024, 29489, 27314, 28218, 30265, 32822, 35021, 34243, 31247, 29462, 29896, 32299, 36040, 38626, 38719, 37352, 34747, 31207, 28642, 27736, 27815, 29132, 31549, 33923, 35579, 35666, 33760, 31706, 31223, 32015, 33861, 36141, 36763, 35564, 34218, 31873, 27955, 26385, 29648, 34018, 35338, 33922, 32138, 31223, 31027, 31487, 33286, 36098, 37863, 37316, 35355, 33059, 30515, 28248, 27709, 29545, 32332, 33710, 33158, 32562, 32884, 32885, 32689, 34053, 36053, 36113, 34638, 33859, 33976, 32931, 29923, 27816, 28793, 30686, 31720, 32863, 33735, 33279, 32936, 33998, 35494, 36706, 37553, 36698, 32979, 27760, 24511, 26692, 33160, 37255, 35717, 32845, 32065, 31823, 30788, 30360, 32112], [31951, 32152, 32087, 32430, 33392, 34290, 34539, 33759, 32126, 31322, 32366, 33468, 33195, 32748, 32855, 32506, 31691, 31517, 31999, 32535, 33182, 33911, 34206, 33956, 33450, 32706, 31828, 31399, 31791, 32635, 33336, 33687, 33649, 33028, 31988, 31376, 31711, 32488, 33162, 33703, 33817, 33243, 32609, 32489, 32596, 32800, 33226, 33372, 32945, 32493, 32137, 31657, 31585, 32181, 32783, 33287, 33915, 33950, 33221, 32833, 32858, 32508, 32363, 33002, 33383, 32880, 32232, 31783, 31450, 31759, 32655, 33084, 33106, 33692, 34275, 33748, 32927, 32848, 32771, 32266, 32209, 32602, 32546, 32049, 31724, 31819, 32386, 33391, 34412, 34555, 33364, 31935, 31696, 32362, 32855, 33058, 33246, 33287, 33058, 32663], [22581, 27387, 33206, 37933, 42755, 45803, 42322, 33433, 27410, 28075, 30707, 32157, 33738, 34605, 32028, 26519, 22540, 23918, 29417, 35263, 40108, 44128, 44866, 39092, 30504, 27115, 28995, 30640, 32102, 34953, 35652, 31433, 25203, 22227, 24785, 30519, 36132, 40800, 44383, 43842, 36871, 29239, 28071, 30551, 31490, 32390, 34166, 33633, 29619, 24810, 23289, 26768, 32663, 37858, 41911, 44119, 41027, 32804, 27531, 29411, 32159, 32442, 33997, 36020, 33619, 27210, 22236, 22718, 27773, 33791, 38760, 42612, 43733, 39424, 32336, 29352, 31015, 32358, 32806, 33974, 33821, 30225, 24748, 21702, 24205, 30432, 36438, 41283, 45219, 44643, 36507, 27745, 27304, 31356, 32442, 32824, 34992, 34648, 29746, 24162], [0, 0, 0, 0, 10212, 50837, 65535, 65535, 65535, 55506, 48749, 45590, 45694, 52703, 56596, 42376, 8960, 0, 0, 0, 0, 19911, 63223, 65535, 65535, 65535, 53981, 47526, 43402, 45638, 54210, 54372, 33537, 0, 0, 0, 0, 0, 35362, 65535, 65535, 65535, 60340, 49310, 46042, 44984, 50186, 57252, 50947, 23629, 0, 0, 0, 0, 5715, 47980, 65535, 65535, 65535, 57525, 49441, 45681, 45228, 51742, 56105, 43331, 11009, 0, 0, 0, 0, 17949, 60961, 65535, 65535, 65535, 53789, 45629, 42263, 45310, 52742, 52678, 35561, 2755, 0, 0, 0, 0, 30082, 65535, 65535, 65535, 63035, 50978, 46405, 43799, 48248, 55907, 51284, 26214]], "framecount": 7.0, "time": 1489540245816}
{"dataframe": [[28624, 30269, 32485, 32825, 33063, 34349, 35145, 34535, 33152, 31871, 31417, 31685, 31905, 32437, 34035, 35377, 34653, 32695, 31441, 31028, 30751, 30892, 32075, 33794, 34422, 33353, 32355, 32894, 33813, 33836, 33587, 33626, 33462, 32839, 31920, 30853, 30157, 30502, 31731, 33140, 34471, 35379, 34906, 32982, 31327, 31694, 33631, 34848, 34097, 32588, 31797, 31413, 30812, 30669, 31498, 32702, 33803, 34402, 33863, 32787, 32641, 33474, 34144, 34000, 33382, 33072, 32729, 31405, 30224, 30736, 31821, 32271, 32864, 33743, 33873, 33114, 32442, 32774, 33884, 34643, 34651, 34339, 33587, 32189, 30897, 30313, 30071, 30000, 30607, 32233, 34335, 35581, 35307, 34504, 34123, 33804, 33323, 33119, 32894, 31895], [37543, 39925, 38954, 36202, 33278, 29948, 26705, 25929, 28543, 32119, 34165, 34528, 33605, 31671, 30114, 30659, 33590, 37230, 39176, 38578, 36424, 33464, 29773, 26845, 27088, 29984, 32404, 33032, 32723, 31988, 31099, 30886, 32233, 35250, 38510, 39814, 38298, 34987, 31473, 28687, 27177, 27612, 29577, 31585, 33178, 34101, 33149, 31050, 30776, 33242, 36402, 38377, 38654, 37245, 34424, 30748, 27430, 26641, 28993, 31722, 32605, 32622, 32575, 31931, 31344, 32106, 34280, 36932, 38673, 38530, 36732, 33605, 29386, 26220, 26792, 30063, 32465, 32905, 32662, 32302, 31694, 31309, 32283, 35109, 38085, 38928, 37708, 35667, 32737, 28958, 26490, 27354, 30198, 32159, 32712, 32787, 32361, 31477, 31327, 33065], [29840, 28445, 28575, 30109, 32436, 34908, 36808, 37050, 35346, 33332, 32528, 32574, 32953, 33701, 34035, 32999, 30975, 29100, 28172, 28613, 30553, 33541, 36362, 37392, 36044, 33908, 32923, 32970, 33043, 33201, 33685, 33786, 32601, 30267, 28259, 28049, 29599, 31913, 34339, 36410, 37024, 35501, 33459, 32961, 33354, 33127, 32891, 33386, 33380, 31854, 29905, 29084, 29395, 30132, 31551, 33976, 36153, 36449, 35165, 33983, 33555, 33396, 33451, 33737, 33501, 32335, 30674, 29106, 28418, 29134, 30760, 32828, 35326, 37124, 36661, 34677, 33259, 32842, 32840, 33257, 33822, 33708, 32535, 30521, 28575, 28087, 29370, 31284, 33315, 35760, 37266, 36212, 34201, 33466, 33347, 33079, 33411, 33965, 33474, 31686], [33403, 34641, 35002, 33266, 31341, 31226, 31616, 31264, 31571, 33045, 33953, 33514, 32530, 31641, 31297, 31986, 33622, 35324, 36013, 35508, 34084, 31492, 28714, 28355, 30676, 32759, 33420, 34495, 36038, 35500, 32720, 30506, 30349, 31618, 33379, 34586, 34443, 33297, 31933, 31062, 31820, 33920, 34437, 32230, 30541, 31721, 33584, 33557, 32483, 32453, 33378, 33509, 32753, 32908, 33875, 33827, 33071, 32779, 32255, 31153, 30634, 31045, 31788, 32636, 33529, 34448, 35126, 34746, 33482, 32738, 32751, 32455, 31740, 31319, 31176, 31422, 32800, 34374, 34006, 32199, 31432, 31984, 32489, 33132, 34572, 35565, 34824, 33178, 31788, 30985, 31224, 32038, 31906, 31491, 32650, 33936, 33067, 31542, 31528, 32694], [35391, 38355, 38769, 35761, 31789, 29600, 29149, 29219, 29955, 31478, 32546, 32572, 32233, 31688, 31199, 32353, 35648, 38579, 38898, 37457, 35229, 31408, 27002, 25346, 27377, 30749, 33476, 35188, 35639, 34406, 32093, 30349, 30531, 32927, 36446, 38842, 38293, 34990, 30837, 27935, 27785, 30092, 31915, 31366, 30874, 32578, 34369, 34191, 33279, 33572, 35231, 36367, 35475, 33940, 33041, 31509, 29438, 29289, 31087, 32138, 31909, 32152, 32543, 31549, 30933, 33349, 36694, 37351, 36256, 35646, 34586, 32221, 29860, 28476, 28538, 30296, 32399, 33416, 33536, 32826, 31248, 30670, 32901, 36389, 38192, 37767, 36073, 33337, 30187, 28368, 28797, 30496, 31659, 31847, 32397, 33391, 33007, 31265, 30715, 32972], [32441, 32039, 32040, 32693, 33226, 33632, 34337, 34356, 33116, 32024, 31864, 32007, 32449, 33241, 33513, 32999, 32329, 31778, 31418, 31588, 32477, 33776, 34712, 34498, 33280, 32255, 32113, 32247, 32207, 32427, 33034, 33527, 33474, 32693, 31591, 31208, 31944, 33097, 33941, 34140, 33504, 32399, 31851, 32355, 33166, 33331, 32880, 32752, 33221, 33153, 32225, 31755, 32014, 32020, 32082, 32937, 33735, 33663, 33352, 33278, 33079, 32839, 32991, 33058, 32502, 32088, 32290, 32242, 31867, 32002, 32412, 32703, 33266, 33850, 33905, 33705, 33315, 32574, 32197, 32541, 32720, 32489, 32596, 32709, 31976, 31343, 32110, 33347, 33632, 33447, 33563, 33441, 32803, 32337, 32332, 32636, 33208, 33618, 33350, 32515], [22395, 25220, 30771, 36378, 41414, 45091, 43969, 36524, 29235, 28431, 30678, 31856, 33548, 34822, 32373, 27075, 22560, 22347, 27385, 34126, 39185, 43243, 45719, 41824, 32322, 26978, 29283, 31741, 31490, 32621, 34480, 32803, 27534, 22974, 23299, 28401, 34826, 40440, 44759, 45240, 38849, 29631, 26209, 28933, 31407, 32618, 34634, 35387, 32177, 26409, 22873, 24920, 30372, 35177, 39117, 43193, 43621, 36791, 29143, 28905, 32240, 32787, 33151, 35011, 33879, 28397, 22984, 22099, 26165, 32008, 37048, 41599, 45088, 43033, 34610, 28406, 29698, 32311, 32330, 33169, 34225, 31388, 25823, 22426, 23860, 28989, 34848, 39568, 43209, 44487, 39978, 31647, 27646, 29643, 31687, 32476, 34235, 34881, 31557, 25622], [0, 0, 0, 0, 0, 35956, 65535, 65535, 65535, 65535, 60689, 46641, 38670, 43339, 49723, 43377, 18894, 0, 0, 0, 0, 10539, 52400, 65535, 65535, 65535, 54880, 47106, 43641, 44227, 52187, 56694, 43016, 10229, 0, 0, 0, 0, 19464, 62790, 65535, 65535, 65535, 53692, 47274, 43730, 46266, 54615, 54597, 34274, 0, 0, 0, 0, 0, 32319, 65535, 65535, 65535, 65535, 53942, 45932, 42728, 48165, 55521, 49963, 23925, 0, 0, 0, 0, 3413, 47899, 65535, 65535, 65535, 58042, 48965, 44463, 43719, 50576, 55994, 44898, 13477, 0, 0, 0, 0, 16425, 59788, 65535, 65535, 65535, 53730, 47753, 44941, 46338, 53493, 54673, 36968]], "framecount": 8.0, "time": 1489540245910}
{"dataframe": [[28624, 30269, 32485, 32825, 33063, 34349, 35145, 34535, 33152, 31871, 31417, 31685, 31905, 32437, 34035, 35377, 34653, 32695, 31441, 31028, 30751, 30892, 32075, 33794, 34422, 33353, 32355, 32894, 33813, 33836, 33587, 33626, 33462, 32839, 31920, 30853, 30157, 30502, 31731, 33140, 34471, 35379, 34906, 32982, 31327, 31694, 33631, 34848, 34097, 32588, 31797, 31413, 30812, 30669, 31498, 32702, 33803, 34402, 33863, 32787, 32641, 33474, 34144, 34000, 33382, 33072, 32729, 31405, 30224, 30736, 31821, 32271, 32864, 33743, 33873, 33114, 32442, 32774, 33884, 34643, 34651, 34339, 33587, 32189, 30897, 30313, 30071, 30000, 30607, 32233, 34335, 35581, 35307, 34504, 34123, 33804, 33323, 33119, 32894, 31895], [37543, 39925, 38954, 36202, 33278, 29948, 26705, 25929, 28543, 32119, 34165, 34528, 33605, 31671, 30114, 30659, 33590, 37230, 39176, 38578, 36424, 33464, 29773, 26845, 27088, 29984, 32404, 33032, 32723, 31988, 31099, 30886, 32233, 35250, 38510, 39814, 38298, 34987, 31473, 28687, 27177, 27612, 29577, 31585, 33178, 34101, 33149, 31050, 30776, 33242, 36402, 38377, 38654, 37245, 34424, 30748, 27430, 26641, 28993, 31722, 32605, 32622, 32575, 31931, 31344, 32106, 34280, 36932, 38673, 38530, 36732, 33605, 29386, 26220, 26792, 30063, 32465, 32905, 32662, 32302, 31694, 31309, 32283, 35109, 38085, 38928, 37708, 35667, 32737, 28958, 26490, 27354, 30198, 32159, 32712, 32787, 32361, 31477, 31327, 33065], [29840, 28445, 28575, 30109, 32436, 34908, 36808, 37050, 35346, 33332, 32528, 32574, 32953, 33701, 34035, 32999, 30975, 29100, 28172, 28613, 30553, 33541, 36362, 37392, 36044, 33908, 32923, 32970, 33043, 33201, 33685, 33786, 32601, 30267, 28259, 28049, 29599, 31913, 34339, 36410, 37024, 35501, 33459, 32961, 33354, 33127, 32891, 33386, 33380, 31854, 29905, 29084, 29395, 30132, 31551, 33976, 36153, 36449, 35165, 33983, 33555, 33396, 33451, 33737, 33501, 32335, 30674, 29106, 28418, 29134, 30760, 32828, 35326, 37124, 36661, 34677, 33259, 32842, 32840, 33257, 33822, 33708, 32535, 30521, 28575, 28087, 29370, 31284, 33315, 35760, 37266, 36212, 34201, 33466, 33347, 33079, 33411, 33965, 33474, 31686], [33403, 34641, 35002, 33266, 31341, 31226, 31616, 31264, 31571, 33045, 33953, 33514, 32530, 31641, 31297, 31986, 33622, 35324, 36013, 35508, 34084, 31492, 28714, 28355, 30676, 32759, 33420, 34495, 36038, 35500, 32720, 30506, 30349, 31618, 33379, 34586, 34443, 33297, 31933, 31062, 31820, 33920, 34437, 32230, 30541, 31721, 33584, 33557, 32483, 32453, 33378, 33509, 32753, 32908, 33875, 33827, 33071, 32779, 32255, 31153, 30634, 31045, 31788, 32636, 33529, 34448, 35126, 34746, 33482, 32738, 32751, 32455, 31740, 31319, 31176, 31422, 32800, 34374, 34006, 32199, 31432, 31984, 32489, 33132, 34572, 35565, 34824, 33178, 31788, 30985, 31224, 32038, 31906, 31491, 32650, 33936, 33067, 31542, 31528, 32694], [35391, 38355, 38769, 35761, 31789, 29600, 29149, 29219, 29955, 31478, 32546, 32572, 32233, 31688, 31199, 32353, 35648, 38579, 38898, 37457, 35229, 31408, 27002, 25346, 27377, 30749, 33476, 35188, 35639, 34406, 32093, 30349, 30531, 32927, 36446, 38842, 38293, 34990, 30837, 27935, 27785, 30092, 31915, 31366, 30874, 32578, 34369, 34191, 33279, 33572, 35231, 36367, 35475, 33940, 33041, 31509, 29438, 29289, 31087, 32138, 31909, 32152, 32543, 31549, 30933, 33349, 36694, 37351, 36256, 35646, 34586, 32221, 29860, 28476, 28538, 30296, 32399, 33416, 33536, 32826, 31248, 30670, 32901, 36389, 38192, 37767, 36073, 33337, 30187, 28368, 28797, 30496, 31659, 31847, 32397, 33391, 33007, 31265, 30715, 32972], [32441, 32039, 32040, 32693, 33226, 33632, 34337, 34356, 33116, 32024, 31864, 32007, 32449, 33241, 33513, 32999, 32329, 31778, 31418, 31588, 32477, 33776, 34712, 34498, 33280, 32255, 32113, 32247, 32207, 32427, 33034, 33527, 33474, 32693, 31591, 31208, 31944, 33097, 33941, 34140, 33504, 32399, 31851, 32355, 33166, 33331, 32880, 32752, 33221, 33153, 32225, 31755, 32014, 32020, 32082, 32937, 33735, 33663, 33352, 33278, 33079, 32839, 32991, 33058, 32502, 32088, 32290, 32242, 31867, 32002, 32412, 32703, 33266, 33850, 33905, 33705, 33315, 32574, 32197, 32541, 32720, 32489, 32596, 32709, 31976, 31343, 32110, 33347, 33632, 33447, 33563, 33441, 32803, 32337, 32332, 32636, 33208, 33618, 33350, 32515], [22395, 25220, 30771, 36378, 41414, 45091, 43969, 36524, 29235, 28431, 30678, 31856, 33548, 34822, 32373, 27075, 22560, 22347, 27385, 34126, 39185, 43243, 45719, 41824, 32322, 26978, 29283, 31741, 31490, 32621, 34480, 32803, 27534, 22974, 23299, 28401, 34826, 40440, 44759, 45240, 38849, 29631, 26209, 28933, 31407, 32618, 34634, 35387, 32177, 26409, 22873, 24920, 30372, 35177, 39117, 43193, 43621, 36791, 29143, 28905, 32240, 32787, 33151, 35011, 33879, 28397, 22984, 22099, 26165, 32008, 37048, 41599, 45088, 43033, 34610, 28406, 29698, 32311, 32330, 33169, 34225, 31388, 25823, 22426, 23860, 28989, 34848, 39568, 43209, 44487, 39978, 31647, 27646, 29643, 31687, 32476, 34235, 34881, 31557, 25622], [0, 0, 0, 0, 0, 35956, 65535, 65535, 65535, 65535, 60689, 46641, 38670, 43339, 49723, 43377, 18894, 0, 0, 0, 0, 10539, 52400, 65535, 65535, 65535, 54880, 47106, 43641, 44227, 52187, 56694, 43016, 10229, 0, 0, 0, 0, 19464, 62790, 65535, 65535, 65535, 53692, 47274, 43730, 46266, 54615, 54597, 34274, 0, 0, 0, 0, 0, 32319, 65535, 65535, 65535, 65535, 53942, 45932, 42728, 48165, 55521, 49963, 23925, 0, 0, 0, 0, 3413, 47899, 65535, 65535, 65535, 58042, 48965, 44463, 43719, 50576, 55994, 44898, 13477, 0, 0, 0, 0, 16425, 59788, 65535, 65535, 65535, 53730, 47753, 44941, 46338, 53493, 54673, 36968]], "framecount": 9.0, "time": 1489540246097}
{"dataframe": [[30631, 30268, 30597, 30809, 31438, 33150, 34877, 35306, 34692, 33834, 33011, 32504, 32581, 33041, 33500, 33464, 32522, 31197, 30381, 30353, 31386, 33287, 34511, 34346, 33966, 33521, 32103, 31055, 32221, 34118, 34619, 34351, 34168, 33256, 31425, 29939, 29676, 30589, 32242, 33752, 34478, 34511, 33772, 32510, 32144, 33141, 34096, 34361, 34359, 33625, 31869, 30298, 29765, 29987, 30851, 32317, 33869, 35029, 35441, 34851, 33615, 32520, 32190, 32876, 33865, 33683, 32168, 30888, 30621, 30671, 30915, 31918, 33424, 34669, 35161, 34660, 33577, 32737, 32376, 32355, 32731, 33279, 33318, 32507, 31462, 31117, 31511, 31915, 32216, 32885, 33640, 33890, 33780, 33571, 33502, 33776, 33647, 32707, 32186, 32470], [36348, 39110, 39439, 37417, 34218, 30581, 27363, 26391, 28418, 31236, 32607, 33000, 33117, 32284, 30935, 31203, 33975, 37520, 39490, 39000, 36511, 32779, 28736, 26219, 27168, 30665, 33205, 33392, 32799, 32130, 31002, 30344, 31522, 34435, 37760, 39884, 39567, 36585, 32070, 27962, 26073, 27291, 30509, 32991, 33329, 32647, 32008, 31181, 30671, 32176, 35824, 39135, 39940, 38285, 35054, 31023, 27497, 26277, 27933, 30554, 32045, 32739, 33364, 33008, 31608, 31301, 33481, 36802, 38939, 38847, 36890, 33846, 30256, 27079, 26316, 28650, 31607, 32878, 32885, 32511, 31977, 31832, 32711, 34913, 37713, 38930, 37562, 35215, 32687, 29190, 26330, 27036, 30360, 32870, 33404, 32765, 31840, 31412, 31774, 33141], [29207, 27488, 28007, 30278, 32710, 34852, 36589, 36801, 35297, 33903, 33560, 33243, 32687, 32792, 33411, 33234, 31619, 29459, 28171, 28465, 30242, 32884, 35543, 37224, 36856, 34756, 33043, 32706, 32797, 33112, 33953, 34206, 32728, 30203, 28336, 28160, 29403, 31223, 33347, 35771, 37285, 36496, 34477, 33334, 33098, 32896, 32918, 33308, 33291, 32060, 29926, 28478, 28725, 30009, 31822, 34382, 36731, 37035, 35278, 33466, 32885, 32997, 33168, 33446, 33636, 33186, 31765, 29668, 28105, 28351, 30309, 32862, 35268, 36909, 36744, 34881, 33048, 32293, 32504, 33469, 34333, 34090, 32890, 31045, 28851, 27801, 28952, 31159, 33217, 35309, 36891, 36481, 34490, 33021, 32945, 33583, 34098, 33991, 33163, 31551], [34623, 36537, 35844, 32715, 31242, 32123, 32126, 31335, 31685, 31622, 30183, 30157, 32896, 36260, 37574, 35575, 32064, 30668, 31937, 33092, 32920, 32545, 32164, 31503, 31586, 32451, 32738, 33096, 34471, 34660, 32408, 30521, 31297, 33548, 34893, 34202, 32355, 31594, 32915, 34138, 33178, 31734, 31726, 31786, 31069, 31267, 32746, 33914, 34333, 34554, 34351, 33442, 32595, 32583, 32612, 31673, 30800, 31431, 33102, 34260, 33611, 31722, 31254, 32853, 33910, 33394, 32751, 32510, 32705, 33634, 34353, 33875, 32734, 31608, 30803, 30977, 32276, 33511, 33530, 32879, 32813, 33018, 32498, 31971, 32583, 33736, 34356, 34373, 34008, 33191, 31900, 30625, 30262, 31297, 33006, 33575, 32381, 31551, 32723, 34299], [36830, 39245, 38128, 34892, 32408, 30697, 28655, 28159, 30485, 32158, 30695, 29357, 31460, 35380, 37389, 35994, 33384, 32885, 34685, 35968, 35025, 32597, 29923, 28250, 28871, 30944, 32185, 32880, 34336, 34881, 32927, 30727, 31200, 33996, 36380, 36360, 34400, 33044, 33778, 33816, 30786, 28453, 29842, 31403, 31030, 31320, 32501, 32690, 32758, 34122, 36137, 37358, 36762, 34995, 33414, 31411, 28827, 28451, 31018, 32781, 31765, 30572, 31341, 32894, 33566, 33621, 34099, 35010, 35710, 36089, 36025, 34575, 31541, 28666, 27735, 28838, 31013, 33094, 33894, 33322, 32705, 32525, 32326, 32975, 35186, 37308, 37422, 35610, 33058, 30320, 27813, 27437, 30001, 32698, 33575, 33659, 33007, 31434, 30902, 32324], [31593, 31109, 31374, 32144, 32995, 33747, 34165, 33966, 33405, 33129, 33190, 33010, 32352, 31619, 31551, 32444, 33297, 32930, 31902, 31635, 32228, 32934, 33701, 34454, 34377, 33399, 32537, 32078, 31657, 31751, 32761, 33674, 33427, 32446, 31917, 32275, 32811, 32671, 32159, 32358, 33196, 33551, 33379, 33463, 33638, 33341, 32747, 32305, 32165, 32128, 31936, 31760, 31878, 32269, 33038, 34084, 34524, 33759, 32505, 31993, 32591, 33324, 33162, 32512, 32275, 32377, 32443, 32487, 32372, 32133, 32432, 33267, 33656, 33436, 33272, 33111, 32652, 32351, 32564, 32816, 32737, 32746, 33073, 33028, 32241, 31629, 31933, 32513, 32712, 32929, 33612, 34325, 34064, 32670, 31657, 32151, 33039, 33112, 32921, 32950], [21641, 23351, 29556, 36068, 41100, 44671, 44203, 37445, 29804, 28481, 31022, 31962, 32565, 33974, 33211, 29166, 24208, 22384, 25968, 32151, 37304, 41664, 45126, 43360, 35253, 28610, 28501, 30154, 31038, 33548, 35596, 33568, 28198, 22838, 22043, 27349, 34263, 39009, 42528, 44158, 39991, 32034, 28683, 31227, 33006, 32580, 33092, 33510, 30818, 25382, 21624, 23881, 30433, 36275, 40607, 44482, 44496, 37669, 29797, 28292, 30642, 31359, 31816, 33741, 34007, 30230, 24731, 22688, 26231, 32066, 37271, 41833, 44519, 42059, 34619, 28717, 28865, 31189, 32209, 33512, 34375, 32023, 27245, 23385, 23610, 28299, 34155, 38696, 42513, 44599, 40935, 32630, 27884, 29345, 31210, 31772, 33702, 35100, 32388, 26528], [1883, 0, 0, 0, 0, 28845, 65535, 65535, 65535, 65303, 52291, 47399, 44867, 48965, 56252, 51767, 26413, 0, 0, 0, 0, 980, 43148, 65535, 65535, 65535, 58585, 52504, 51285, 47912, 50020, 54205, 43637, 12708, 0, 0, 0, 0, 14951, 58534, 65535, 65535, 65535, 55329, 48426, 45036, 45599, 52652, 54869, 38225, 3719, 0, 0, 0, 0, 26316, 65535, 65535, 65535, 65535, 53492, 48437, 44857, 47233, 55118, 52810, 29184, 0, 0, 0, 0, 0, 39139, 65535, 65535, 65535, 60599, 50363, 46855, 45095, 50603, 57559, 48918, 18665, 0, 0, 0, 0, 8507, 51701, 65535, 65535, 65535, 56920, 48826, 45202, 45472, 52544, 55822, 41000]], "framecount": 10.0, "time": 1489540246097}
{"dataframe": [[32230, 31341, 31053, 31545, 32143, 32686, 33369, 34003, 33989, 33418, 33171, 33260, 33019, 32854, 33362, 33721, 33087, 31962, 31053, 30505, 30605, 31647, 33126, 34151, 34339, 33908, 33384, 33226, 33453, 33570, 33331, 33217, 33118, 32150, 30753, 30287, 30711, 31372, 32592, 34315, 35166, 34509, 33514, 33080, 32792, 32435, 32404, 32717, 33059, 33230, 33066, 32473, 31510, 30629, 30846, 32478, 34005, 33894, 32939, 32800, 33354, 33674, 33964, 34490, 34377, 33110, 31647, 30919, 30659, 30413, 30520, 31503, 33241, 34993, 35637, 34594, 33056, 32522, 32530, 32344, 32675, 33599, 33979, 33565, 32664, 30999, 29427, 29911, 32017, 33403, 33877, 34449, 34454, 33592, 33182, 33381, 33243, 33064, 33316, 33222], [35850, 38531, 38925, 37085, 34472, 31285, 27811, 26301, 28212, 31297, 32790, 33043, 33125, 32560, 31416, 31183, 32969, 36299, 39095, 39335, 37179, 34004, 30308, 26902, 26014, 28214, 31105, 33008, 34013, 33795, 32455, 31434, 31823, 33860, 36799, 38635, 38195, 36164, 33040, 29042, 26287, 27316, 30781, 32810, 32830, 32918, 32843, 31489, 30500, 31951, 35065, 37752, 39095, 38758, 36155, 31812, 27845, 26402, 28011, 30727, 32136, 32430, 32790, 32619, 31582, 31345, 33249, 36396, 38660, 38873, 37490, 34977, 31146, 27084, 25691, 28084, 31359, 32676, 32772, 32813, 32220, 31492, 32365, 34728, 37059, 38611, 38689, 36462, 32806, 29436, 27090, 26646, 28666, 31418, 33080, 33885, 33856, 32465, 31060, 31777], [29326, 27787, 28121, 29778, 32012, 34870, 37379, 37660, 35703, 33613, 32713, 32528, 32609, 33034, 33426, 33085, 31601, 29472, 28314, 29114, 31007, 32988, 35046, 36664, 36594, 34992, 33412, 32526, 32178, 32605, 33544, 33929, 33164, 31395, 29468, 28684, 29370, 30858, 32871, 35146, 36488, 35947, 34427, 33474, 33174, 33000, 33277, 34010, 33979, 32283, 29747, 28227, 28606, 30056, 31678, 33648, 35869, 36913, 35833, 34021, 33206, 33100, 33020, 33220, 33545, 33255, 31910, 29879, 28559, 28841, 30077, 31930, 34562, 36610, 36422, 34851, 33851, 33558, 33214, 33084, 33434, 33569, 32830, 31212, 29322, 28233, 28702, 30608, 33243, 35699, 36928, 36234, 34384, 33007, 32599, 32818, 33565, 34264, 34043, 32692], [34568, 34313, 34525, 34554, 33389, 31356, 30111, 30544, 31484, 31761, 31914, 32508, 33099, 33789, 34745, 34688, 33369, 32817, 33595, 33903, 32952, 31669, 30842, 30822, 31468, 31581, 31016, 32256, 35818, 37483, 35033, 32184, 31647, 31674, 31413, 31959, 32692, 32476, 32118, 32679, 34033, 34997, 33955, 31564, 30823, 32134, 32751, 31992, 31782, 32884, 34391, 34964, 33857, 32433, 32436, 32927, 32342, 31516, 31649, 32152, 32590, 33398, 33820, 33049, 32244, 32161, 32051, 32184, 33412, 34804, 34736, 33018, 31378, 32174, 34466, 34112, 31022, 29819, 31361, 32252, 32008, 32511, 33454, 33895, 34236, 34487, 34230, 33872, 33513, 32372, 30782, 30372, 31448, 32762, 33440, 33051, 31768, 30964, 31595, 33359], [34451, 36753, 38877, 38952, 35716, 30798, 27287, 26861, 28632, 30355, 31194, 32402, 34083, 34443, 33425, 32931, 33733, 35350, 37047, 37341, 35216, 31995, 29528, 28227, 28252, 29332, 30578, 32775, 35981, 36669, 33818, 31392, 31169, 31839, 33583, 36001, 36627, 35074, 33002, 31304, 30882, 31635, 31361, 30068, 30362, 31890, 32141, 31341, 31446, 33428, 36778, 38929, 37794, 35155, 33362, 31583, 29061, 27744, 28948, 31096, 32416, 33000, 33309, 33182, 32652, 32189, 32701, 34819, 37226, 37700, 35630, 31959, 29156, 29993, 32741, 32660, 30186, 29745, 31376, 31845, 31189, 31533, 33166, 35453, 37672, 38249, 36712, 34826, 33192, 30325, 27104, 27012, 30193, 32977, 33645, 33192, 32232, 31210, 31184, 32812], [32626, 31940, 31543, 31569, 32079, 33209, 34126, 33960, 33487, 33609, 33493, 32555, 31960, 32231, 32493, 32562, 32614, 32295, 31967, 32205, 32530, 32714, 33208, 33763, 33853, 33693, 33549, 33179, 32323, 31436, 31580, 32624, 32949, 32333, 32296, 32867, 32851, 32665, 33143, 33516, 33149, 32792, 32976, 33094, 32615, 32109, 32417, 33350, 33810, 33085, 31870, 31410, 31754, 32168, 32695, 33519, 33950, 33620, 33189, 33027, 32778, 32418, 32367, 32528, 32477, 32428, 32749, 33113, 33079, 32670, 32284, 32495, 33063, 32886, 32137, 32238, 33088, 33381, 33255, 33563, 33768, 33123, 32339, 32227, 32298, 31851, 31252, 31442, 32606, 33874, 34326, 33869, 33116, 32709, 32752, 32845, 32751, 32765, 33042, 32970], [22268, 23613, 29238, 34738, 39157, 43622, 44954, 39096, 30852, 28755, 31273, 31941, 31761, 33318, 33479, 29627, 24295, 22368, 25941, 31962, 37005, 41281, 44676, 43272, 35581, 28807, 29111, 31662, 31547, 32021, 34087, 33260, 28379, 23536, 23104, 27465, 33335, 38364, 42608, 44855, 41440, 33006, 27665, 29167, 31357, 31461, 33212, 35453, 33370, 27292, 22182, 22515, 28236, 35135, 40350, 44017, 44534, 39010, 31009, 28219, 30261, 31282, 31520, 33267, 33891, 30869, 25780, 22771, 25138, 31282, 37019, 41479, 44951, 43576, 35344, 27809, 27692, 30429, 31505, 33514, 35828, 34212, 29114, 24159, 22755, 26452, 32472, 37293, 41254, 44310, 42086, 33888, 28080, 29489, 32161, 32415, 33285, 34474, 32545, 27516], [7568, 0, 0, 0, 0, 21064, 64602, 65535, 65535, 65535, 53188, 47847, 44936, 47708, 55867, 54916, 33075, 0, 0, 0, 0, 0, 34129, 65535, 65535, 65535, 63091, 50958, 46402, 44451, 49516, 56463, 49779, 22229, 0, 0, 0, 0, 5020, 48178, 65535, 65535, 65535, 57678, 48653, 45178, 45211, 51694, 56035, 44181, 13009, 0, 0, 0, 0, 16022, 60908, 65535, 65535, 65535, 55049, 49234, 45350, 46786, 54378, 54266, 34488, 0, 0, 0, 0, 0, 31023, 65535, 65535, 65535, 63637, 50360, 46831, 45648, 50046, 57360, 52717, 26276, 0, 0, 0, 0, 313, 43906, 65535, 65535, 65535, 57240, 50939, 49239, 47689, 53231, 58442, 46137]], "framecount": 11.0, "time": 1489540246207}
{"dataframe": [[32216, 30987, 30482, 30871, 31612, 32355, 33298, 34279, 34539, 34036, 33622, 33392, 32798, 32392, 32930, 33551, 33172, 32092, 31088, 30619, 30929, 31938, 33229, 34251, 34475, 33776, 32813, 32337, 32275, 32613, 33663, 34592, 34276, 33147, 32006, 30968, 30468, 30784, 31327, 32166, 33784, 35015, 34601, 33514, 32930, 32453, 32095, 32849, 34202, 34245, 32843, 31715, 31371, 30931, 30632, 31713, 33705, 34567, 33972, 33253, 32653, 32106, 32469, 33518, 33961, 33914, 34008, 33431, 31808, 30486, 30289, 30813, 31869, 33234, 34022, 33930, 33726, 33691, 33428, 33193, 33420, 33688, 33436, 32608, 31579, 30889, 30635, 30785, 31730, 33230, 34150, 34150, 33929, 33704, 33177, 32773, 33145, 33812, 33866, 33138], [34591, 37455, 38526, 37628, 35624, 32771, 29165, 26730, 27568, 30246, 31915, 32618, 33248, 33053, 31990, 31486, 32643, 35468, 38331, 38936, 36961, 33907, 30805, 28216, 27394, 29008, 31461, 32767, 32848, 32374, 31686, 31335, 31879, 33696, 36528, 38612, 38410, 36586, 34104, 30660, 27166, 26480, 29081, 31798, 32783, 33094, 33062, 32070, 31053, 31887, 34883, 37904, 38691, 37571, 35756, 32855, 28978, 26561, 27420, 30172, 32274, 32874, 32638, 32242, 31878, 31887, 33211, 36006, 38503, 38952, 37324, 34282, 30488, 27245, 26385, 28499, 31509, 32951, 33042, 33008, 32668, 31904, 31899, 33697, 36524, 38265, 37950, 36263, 33586, 30072, 27205, 27021, 29455, 32036, 33058, 33084, 32745, 31901, 31134, 31828], [30448, 28370, 28061, 29473, 31236, 33288, 35943, 37462, 36274, 33979, 32792, 32650, 32971, 33646, 34009, 33533, 32179, 30046, 28308, 28316, 29715, 31714, 34229, 36481, 36983, 35563, 33814, 33109, 33191, 33230, 33290, 33651, 33405, 31464, 28862, 27831, 28781, 30514, 32613, 35252, 37315, 36993, 34720, 33132, 33149, 33241, 32896, 33050, 33493, 32841, 30727, 28657, 28330, 29628, 31459, 33597, 35858, 36878, 35832, 34067, 33163, 33004, 33124, 33542, 33735, 33099, 31755, 30013, 28583, 28610, 30158, 32163, 34140, 36041, 36824, 35623, 33795, 33072, 33020, 32908, 33295, 33934, 33389, 31406, 29302, 28306, 28739, 30335, 32615, 35020, 36728, 36688, 34988, 33369, 32914, 33049, 33335, 33722, 33663, 32681], [35323, 36005, 35052, 34074, 33582, 32151, 29752, 28354, 29224, 31986, 35149, 36410, 34854, 32652, 31762, 31430, 31349, 32539, 34143, 34519, 34140, 33754, 32862, 31671, 31259, 31691, 32167, 32287, 32145, 32190, 32720, 33056, 32965, 33595, 34552, 34022, 33073, 33693, 34395, 33269, 31268, 30133, 30311, 30926, 31307, 32237, 34063, 35210, 34453, 33001, 32918, 34062, 34387, 33262, 32062, 31853, 32161, 31816, 30975, 31077, 32304, 33436, 33767, 33299, 32463, 32269, 33180, 34326, 34772, 34243, 32877, 31816, 32174, 32762, 31963, 30771, 30883, 32057, 33133, 33492, 33132, 32655, 32836, 33668, 34384, 34409, 33801, 33086, 32659, 32143, 31196, 30693, 31335, 32206, 32613, 33103, 33594, 33531, 33296, 33144], [35646, 38124, 38659, 37074, 34257, 30909, 27635, 25959, 27545, 31539, 34677, 35091, 33985, 33054, 32229, 31041, 30978, 33680, 37232, 38267, 36699, 34366, 31654, 28953, 28058, 29461, 31332, 32270, 32361, 32130, 32190, 32692, 33320, 34248, 35454, 36274, 36656, 36536, 34924, 31615, 28137, 26669, 28132, 30553, 31595, 32303, 34165, 35125, 33658, 32644, 34492, 36963, 37233, 35593, 33471, 31485, 29630, 28224, 28520, 30610, 32445, 33134, 33373, 32818, 31651, 32097, 34941, 37634, 37542, 35174, 33112, 32425, 31720, 30094, 28904, 29441, 30962, 32319, 33271, 33524, 32829, 31970, 32162, 33865, 36154, 37254, 36510, 34921, 33081, 30633, 28418, 28329, 30111, 31620, 32415, 33288, 33613, 32829, 32063, 32409], [32137, 31467, 31793, 32273, 32191, 32534, 33893, 34936, 34377, 32780, 31660, 31764, 32521, 32996, 33138, 33280, 33090, 32382, 31822, 31837, 32173, 32607, 33047, 33335, 33364, 33149, 32992, 33222, 33444, 33047, 32474, 32443, 32534, 32286, 32247, 32479, 32258, 31863, 32178, 33107, 33865, 33898, 33454, 33266, 33237, 32728, 32064, 32000, 32484, 32987, 33048, 32524, 32034, 32226, 32660, 32767, 32896, 33253, 33309, 32893, 32623, 32922, 33323, 33183, 32768, 32795, 33041, 32658, 31840, 31639, 32107, 32351, 32399, 32986, 33763, 33839, 33363, 32969, 32829, 32865, 32885, 32782, 32770, 32749, 32355, 31883, 31756, 31840, 32219, 33123, 33944, 33941, 33467, 33204, 33010, 32625, 32460, 32659, 32708, 32513], [23021, 23206, 28161, 33792, 38348, 42970, 45264, 40766, 32184, 27903, 29348, 31050, 31956, 33964, 34834, 31782, 26203, 22547, 24266, 29966, 35640, 40015, 43536, 43497, 37116, 29555, 28413, 31648, 33301, 33798, 34520, 33189, 28647, 23335, 21778, 25951, 32392, 37465, 41497, 44521, 42872, 35319, 28707, 28716, 31384, 32419, 33317, 34270, 32866, 28483, 23312, 21702, 25893, 32908, 39235, 44219, 46329, 42025, 32910, 27320, 28422, 30654, 31568, 33446, 34706, 31908, 26325, 22907, 24781, 30129, 35322, 39549, 43414, 44134, 38160, 29930, 27768, 30535, 32011, 32785, 34625, 34291, 30002, 24552, 22258, 25464, 31814, 37245, 41108, 43909, 42551, 35402, 29045, 29236, 31628, 31914, 32700, 34312, 32904, 27962], [13060, 0, 0, 0, 0, 13532, 58907, 65535, 65535, 65535, 55327, 49177, 45776, 46267, 53745, 55574, 37359, 1773, 0, 0, 0, 0, 26833, 65535, 65535, 65535, 65535, 52367, 48579, 46557, 49872, 56871, 52801, 27641, 0, 0, 0, 0, 0, 41511, 65535, 65535, 65535, 60969, 50300, 45821, 44450, 50438, 56482, 47332, 17916, 0, 0, 0, 0, 9404, 53598, 65535, 65535, 65535, 56804, 50348, 46479, 46302, 53490, 56252, 40225, 6363, 0, 0, 0, 0, 20795, 65535, 65535, 65535, 65535, 54660, 47952, 43762, 45911, 53945, 53032, 30865, 0, 0, 0, 0, 0, 37803, 65535, 65535, 65535, 62081, 51652, 47140, 44575, 49773, 56671, 48846]], "framecount": 12.0, "time": 1489540246316}
{"dataframe": [[31983, 31083, 30820, 30605, 30502, 31835, 34239, 35472, 35067, 34240, 33175, 31866, 31329, 31901, 32829, 33795, 34707, 34843, 33520, 30909, 28518, 28571, 31214, 33915, 34917, 34691, 33993, 33325, 33316, 33787, 33924, 33810, 33827, 33191, 31272, 29394, 29189, 30191, 31215, 32564, 34513, 35770, 35558, 34745, 33923, 33000, 32447, 32571, 32666, 32320, 31975, 31756, 31354, 30913, 31020, 31977, 33307, 34184, 34467, 34454, 33977, 33107, 32619, 32767, 33164, 33523, 33307, 32275, 31377, 31197, 31037, 30881, 31698, 33119, 33797, 33869, 34061, 34002, 33611, 33608, 33849, 33606, 32984, 32362, 31673, 30996, 30564, 30444, 31096, 32774, 34238, 34207, 33578, 33828, 34360, 34011, 33503, 33641, 33479, 32548], [34523, 37731, 39062, 37990, 35849, 33022, 29087, 25897, 26539, 30338, 33202, 33614, 33334, 32835, 31481, 30528, 31718, 34633, 37457, 38943, 38826, 36932, 32902, 27897, 25419, 27389, 30858, 32414, 32656, 32745, 32010, 31007, 31447, 33594, 36657, 39247, 39581, 37435, 34162, 30484, 27049, 25966, 28189, 31191, 32573, 32969, 33164, 32573, 31654, 32064, 34330, 37094, 38531, 38070, 36282, 33415, 29639, 26719, 26981, 29814, 32116, 32726, 32835, 32674, 31782, 31177, 32364, 35224, 37952, 38837, 37704, 35200, 31855, 28815, 27702, 28730, 30454, 31641, 32128, 32158, 31949, 31675, 31767, 33235, 36271, 38891, 39214, 37569, 34604, 30477, 26941, 26541, 29019, 31479, 32401, 32632, 32583, 32017, 31706, 32423], [30811, 28754, 27992, 29216, 31345, 33454, 35637, 37002, 36075, 33821, 32677, 32977, 33451, 33820, 34331, 34227, 32492, 29650, 27695, 27845, 29471, 31632, 34051, 36218, 36991, 35917, 34229, 33346, 33188, 33188, 33395, 33670, 33264, 31600, 29256, 27917, 28524, 30306, 32371, 34677, 36707, 37020, 35396, 33659, 33023, 32922, 33016, 33461, 33658, 32866, 31101, 29139, 28307, 29207, 30958, 32856, 35072, 36745, 36323, 34488, 33392, 33260, 33184, 33362, 33769, 33478, 32225, 30415, 28700, 28256, 29616, 31858, 33960, 35571, 36144, 35301, 34072, 33675, 33721, 33543, 33492, 33599, 33084, 31568, 29607, 28349, 28611, 30083, 32127, 34619, 36767, 36882, 34983, 33316, 33002, 33102, 33174, 33493, 33622, 33024], [33002, 33456, 34198, 33676, 32025, 30900, 30645, 30882, 32112, 34561, 36837, 36861, 34277, 30795, 27858, 26353, 27990, 33204, 38281, 38853, 35896, 33751, 33479, 32887, 31192, 29814, 29841, 30822, 31830, 32587, 33068, 33140, 33229, 33920, 34744, 34937, 34599, 33864, 32579, 31212, 30532, 30757, 31554, 32360, 32855, 33109, 33153, 32986, 32814, 32851, 33223, 33789, 33867, 33194, 32815, 33277, 33358, 32524, 31945, 31820, 31387, 31193, 31793, 32284, 32444, 33139, 34150, 34734, 35020, 34800, 33292, 31329, 30956, 31963, 32317, 32009, 32288, 32804, 32767, 32379, 32137, 32373, 33082, 34000, 34717, 34476, 33023, 31656, 31886, 32825, 32319, 31256, 32220, 33919, 33404, 31967, 32064, 32605, 32515, 33014], [34069, 36442, 37723, 36538, 33683, 30702, 28599, 28293, 29998, 32631, 34818, 35333, 33667, 31023, 28877, 28134, 30259, 35263, 39494, 39483, 36580, 34542, 33803, 31727, 28309, 26960, 28679, 30792, 31892, 32660, 32984, 32585, 32639, 34291, 36760, 38097, 37436, 35488, 33023, 30289, 28060, 27770, 29576, 31645, 32608, 32924, 33070, 32764, 32245, 32546, 34257, 36489, 37511, 36624, 34616, 32291, 29864, 28267, 28867, 30934, 32250, 32492, 32632, 32397, 31693, 31911, 33670, 36010, 37722, 37519, 34902, 31971, 31018, 30760, 29682, 29668, 31198, 31663, 31244, 32443, 34348, 34123, 32398, 32514, 35028, 36766, 35873, 34055, 33128, 32105, 29421, 27460, 30034, 34543, 35143, 32887, 32022, 31463, 29937, 30567], [32370, 32196, 32019, 32171, 32654, 33345, 34062, 34162, 33313, 32012, 30975, 30991, 32268, 33827, 34917, 35392, 34400, 31902, 30334, 30994, 31798, 31576, 31871, 33161, 34132, 34255, 33855, 33226, 32850, 32923, 32984, 32765, 32497, 32328, 32149, 31914, 31791, 31948, 32375, 32993, 33714, 34201, 33981, 33208, 32676, 32666, 32690, 32568, 32554, 32533, 32304, 32095, 32102, 32187, 32282, 32625, 33339, 33951, 33904, 33430, 33059, 32809, 32624, 32595, 32554, 32458, 32481, 32379, 32010, 31854, 32130, 32752, 33640, 33984, 33284, 32751, 33122, 33329, 32936, 32622, 32451, 32387, 32650, 32677, 32187, 32065, 32450, 32513, 32451, 33077, 33943, 33917, 33131, 32610, 32490, 32412, 32691, 33238, 33138, 32540], [23341, 23135, 27775, 33863, 38814, 42906, 45050, 41131, 31958, 26305, 27978, 30970, 32427, 34845, 36630, 33899, 27283, 21870, 22638, 28775, 34829, 38705, 42383, 44267, 39730, 31475, 28026, 29959, 31496, 32517, 34860, 35234, 30960, 24767, 21815, 24686, 30816, 36251, 40449, 43902, 43412, 36572, 29370, 28604, 31165, 32366, 33821, 35542, 33825, 28045, 21990, 20834, 26108, 33495, 38907, 42728, 45057, 42290, 34090, 28117, 28906, 31207, 31858, 33486, 34834, 32138, 26540, 22591, 23477, 28643, 34888, 39992, 43581, 44116, 39112, 31308, 27920, 29889, 31798, 32449, 33912, 34616, 31664, 25845, 22057, 24169, 29970, 35348, 40056, 44389, 44668, 38141, 30323, 28570, 30663, 31086, 31306, 33404, 33980, 30135], [20180, 0, 0, 0, 0, 6613, 50066, 65535, 65535, 65535, 58049, 50395, 46277, 45800, 52959, 56789, 42174, 8572, 0, 0, 0, 0, 18948, 63823, 65535, 65535, 65535, 55077, 49096, 45359, 47130, 54582, 53559, 32431, 0, 0, 0, 0, 0, 32991, 65535, 65535, 65535, 64330, 52160, 47606, 44667, 48632, 55826, 50029, 22829, 0, 0, 0, 0, 4487, 47570, 65535, 65535, 65535, 58582, 49306, 45028, 43996, 50527, 56173, 45285, 13910, 0, 0, 0, 0, 14884, 58836, 65535, 65535, 65535, 53717, 48735, 46675, 48258, 54820, 54400, 35491, 1030, 0, 0, 0, 0, 30688, 65535, 65535, 65535, 62466, 50170, 47201, 45484, 49491, 57190, 53437]], "framecount": 13.0, "time": 1489540246410}
{"dataframe": [[31684, 31061, 30604, 30847, 31401, 31450, 31815, 33356, 34953, 35433, 35147, 34585, 33743, 32910, 32426, 32149, 31711, 31022, 30666, 31166, 31948, 32376, 32817, 33536, 33998, 33937, 33799, 33713, 33334, 32964, 33191, 33640, 33540, 32771, 31662, 30653, 30126, 30299, 31308, 32858, 34179, 34854, 34932, 34368, 33363, 32706, 32841, 33295, 33453, 33081, 32174, 31142, 30584, 30569, 31047, 32195, 33558, 34342, 34437, 34050, 33490, 33312, 33470, 33340, 33025, 33171, 33376, 32335, 30187, 29201, 30676, 32885, 33941, 34186, 34111, 33368, 32530, 32393, 32683, 33398, 34610, 35105, 34029, 32272, 30970, 30516, 30773, 31202, 31562, 32252, 33270, 33849, 33649, 33399, 33804, 34358, 34302, 33936, 33578, 32927], [34195, 36822, 38813, 38258, 35851, 33209, 29945, 26913, 27374, 30759, 32592, 32155, 32010, 31993, 31041, 30696, 32440, 35578, 38497, 39723, 38598, 35605, 31841, 28618, 27119, 27752, 29670, 31341, 32142, 32580, 32705, 32151, 31770, 33108, 36030, 38555, 39224, 37919, 34828, 30687, 27309, 26403, 28137, 30886, 32706, 33153, 32817, 32009, 31247, 31638, 33858, 37161, 39487, 39149, 36528, 33184, 29863, 27130, 26660, 28857, 31208, 32085, 32771, 33743, 33423, 31641, 30877, 33389, 38044, 40832, 39419, 35527, 31532, 27952, 25885, 27188, 30476, 32323, 32452, 32649, 32955, 32646, 32164, 32882, 35614, 38544, 38771, 36523, 34047, 31497, 28338, 26569, 28136, 31190, 32691, 32637, 32482, 32243, 31843, 32292], [31589, 29594, 28334, 28992, 30853, 32691, 34559, 36246, 36341, 34752, 33402, 33274, 33560, 33672, 33771, 33647, 32470, 30143, 28205, 28085, 29442, 31427, 33790, 36003, 36897, 35927, 34244, 33467, 33578, 33467, 33017, 32893, 32781, 31596, 29652, 28733, 29435, 30714, 32145, 34062, 35902, 36400, 35309, 33926, 33382, 33323, 33224, 33281, 33313, 32670, 31201, 29525, 28696, 29306, 30820, 32480, 34381, 36329, 36845, 35465, 33898, 33206, 32834, 32640, 32884, 33111, 32516, 30889, 29249, 28934, 29900, 31351, 33288, 35622, 36905, 36017, 34170, 33196, 33005, 32746, 32675, 33103, 33312, 32458, 30636, 29113, 29156, 30400, 31779, 33445, 35592, 36711, 35630, 33789, 32985, 32936, 32969, 33316, 33724, 33394], [33950, 33855, 33159, 32939, 32918, 32726, 32401, 31836, 31561, 32319, 33303, 33251, 32652, 32515, 32451, 32091, 32407, 33638, 34364, 34075, 33740, 33523, 32729, 31484, 30773, 31287, 32472, 32844, 32032, 31590, 32604, 34112, 34856, 34750, 34126, 33161, 32236, 31845, 31948, 31983, 31783, 31903, 32560, 33029, 32826, 32460, 32476, 32993, 33716, 33896, 33501, 33347, 33340, 32790, 32144, 32186, 32324, 31714, 31078, 31545, 32990, 34347, 34431, 33146, 32128, 32738, 34127, 34339, 32813, 31341, 31517, 32267, 32258, 32165, 32458, 32696, 33171, 33779, 33632, 33243, 33276, 32729, 31547, 31284, 32167, 33233, 34106, 34364, 33529, 32384, 31941, 31830, 31555, 31864, 33202, 34073, 33318, 32576, 32883, 32523], [33965, 36510, 36871, 36444, 35505, 33699, 31456, 29583, 29103, 30194, 31608, 32498, 32776, 32181, 31237, 31202, 32562, 34913, 37070, 37700, 36899, 35380, 32756, 29249, 27340, 28792, 31569, 32408, 31230, 30503, 31556, 33661, 35486, 36228, 36179, 35916, 35231, 34076, 32736, 30751, 28495, 28208, 30454, 32567, 32772, 32335, 32651, 33389, 33690, 33555, 33891, 35043, 35963, 35689, 34458, 32651, 30236, 28282, 28710, 30920, 32206, 32495, 33605, 34550, 33602, 32542, 33287, 34246, 34061, 34089, 34835, 34660, 32916, 30683, 29209, 29552, 31517, 33096, 33283, 33214, 33077, 31878, 30759, 31876, 34576, 36639, 37311, 36536, 34172, 31247, 29351, 28789, 28977, 30215, 32950, 35070, 34361, 32738, 32065, 31114], [32354, 32282, 31890, 31901, 32475, 32906, 33278, 33806, 33816, 33137, 32574, 32477, 32549, 32750, 33159, 33378, 32902, 32111, 31896, 32090, 31944, 31884, 32648, 33676, 34037, 33677, 33113, 32883, 33017, 32966, 32636, 32549, 32599, 32238, 31810, 31904, 32219, 32500, 33038, 33660, 33875, 33678, 33210, 32596, 32302, 32576, 32917, 32888, 32697, 32536, 32233, 31900, 31964, 32474, 33035, 33279, 33305, 33534, 33819, 33541, 32806, 32237, 32022, 32103, 32367, 32495, 32401, 32441, 32808, 33131, 33077, 32965, 33176, 33500, 33485, 32943, 32252, 32045, 32199, 32209, 32373, 32983, 33500, 33536, 33073, 32240, 31812, 32324, 32923, 32901, 32989, 33484, 33371, 32630, 32460, 32790, 32725, 32529, 32798, 33238], [24460, 22556, 26509, 32683, 37594, 41573, 44415, 42238, 34310, 28312, 29231, 31607, 31757, 32928, 34846, 33301, 27885, 22768, 22690, 27849, 33967, 38803, 43093, 44860, 40279, 31996, 28055, 29764, 31528, 32233, 34061, 34883, 31575, 25589, 21824, 23767, 29846, 35966, 40619, 44317, 44664, 38301, 29665, 27222, 30052, 31841, 32805, 34701, 34336, 29657, 23840, 21838, 25482, 31953, 37671, 42059, 45282, 43930, 35782, 27945, 27688, 30427, 30743, 31838, 34559, 33941, 28931, 24049, 23551, 27735, 33586, 38651, 42846, 44985, 41187, 32341, 26998, 28540, 30824, 31564, 33716, 35365, 32660, 26971, 22880, 23741, 29059, 35240, 40124, 44007, 44691, 38620, 30145, 27846, 30418, 31314, 31502, 33482, 34106, 30881], [28397, 0, 0, 0, 0, 0, 42401, 65535, 65535, 65535, 59735, 50836, 47447, 46032, 51501, 56609, 45534, 14307, 0, 0, 0, 0, 12234, 56109, 65535, 65535, 65535, 56033, 49768, 46358, 46993, 54195, 55900, 38427, 2996, 0, 0, 0, 0, 27176, 65535, 65535, 65535, 65535, 52533, 47086, 43862, 47547, 56430, 54482, 30561, 0, 0, 0, 0, 0, 38257, 65535, 65535, 65535, 62577, 51510, 46946, 45080, 50519, 57000, 48674, 18915, 0, 0, 0, 0, 8622, 52202, 65535, 65535, 65535, 57203, 49202, 45427, 46113, 54053, 57542, 41715, 6670, 0, 0, 0, 0, 19451, 64487, 65535, 65535, 65535, 55802, 49776, 45193, 46505, 53973, 52623]], "framecount": 14.0, "time": 1489540246519}
{"dataframe": [[32129, 31404, 30532, 29928, 30239, 31139, 32338, 34041, 35513, 35566, 34614, 33929, 33577, 33100, 32650, 32237, 31715, 31389, 31369, 31339, 31361, 31838, 32718, 33522, 34019, 34253, 34066, 33348, 32675, 32711, 33149, 33417, 33629, 33628, 32794, 31372, 30208, 29821, 30557, 32232, 33757, 34257, 34065, 34104, 34561, 34670, 34025, 33113, 32244, 31563, 31528, 31770, 31393, 30801, 30970, 31930, 33347, 34788, 35201, 34104, 32872, 32860, 33375, 33363, 33213, 33362, 33022, 31627, 30330, 30432, 31315, 31907, 32539, 33626, 34502, 34603, 34168, 33505, 32773, 32442, 32897, 33574, 33492, 32535, 31477, 30978, 31069, 31421, 31889, 32708, 33949, 34912, 34668, 33250, 31865, 31637, 32461, 33487, 34211, 34375], [34183, 36778, 38593, 38410, 36143, 32804, 29712, 27889, 27923, 29536, 31358, 32319, 32605, 32503, 32032, 31771, 32540, 34639, 37282, 38725, 38008, 35767, 32763, 29371, 26958, 27298, 29820, 32047, 32908, 32936, 32385, 31547, 31424, 32841, 35541, 38164, 39161, 37909, 34939, 31265, 27931, 26532, 28285, 31309, 32444, 32158, 32521, 32738, 31964, 31899, 33573, 36025, 38051, 38599, 37075, 34105, 30672, 27572, 26497, 28562, 31646, 33197, 33541, 33236, 31812, 30370, 31010, 34004, 37457, 39216, 38735, 36662, 33437, 29628, 26823, 26752, 29195, 31888, 33201, 33269, 32497, 31242, 30656, 32129, 35626, 38952, 39694, 37812, 34943, 31861, 28511, 26290, 27295, 30494, 32607, 32986, 33036, 32690, 31640, 31222], [32011, 29917, 28332, 28590, 30470, 32708, 34693, 36097, 36130, 34861, 33671, 33232, 33073, 33188, 33693, 33874, 33073, 31330, 29315, 28168, 28563, 30210, 32623, 35304, 37055, 36710, 34998, 33760, 33304, 32954, 32992, 33494, 33353, 32008, 30192, 28851, 28604, 29629, 31499, 33722, 35929, 37003, 35930, 33912, 32976, 33131, 33380, 33565, 33690, 33274, 31829, 29652, 28164, 28494, 30171, 32192, 34337, 36376, 36991, 35540, 33752, 33029, 32727, 32853, 33934, 34472, 32971, 30510, 28765, 28190, 28880, 30742, 33093, 35435, 37142, 36833, 34659, 32979, 32720, 32765, 32981, 33732, 33971, 32719, 30528, 28680, 28259, 29481, 31521, 33667, 35790, 36939, 35885, 33787, 32962, 33329, 33503, 33449, 33549, 33243], [31645, 32434, 34015, 34289, 33681, 32747, 31239, 30292, 31346, 33862, 35843, 35785, 33831, 31344, 29576, 28991, 29670, 31710, 34619, 36734, 36793, 35687, 34457, 32502, 30326, 29912, 30783, 31052, 31376, 32598, 33163, 32750, 33195, 34457, 34884, 34376, 33664, 33011, 32641, 32183, 31192, 30774, 31812, 33023, 33338, 33285, 33022, 32354, 31857, 31951, 32658, 33822, 34387, 33549, 32512, 33059, 34611, 34622, 32670, 30973, 30261, 29877, 30575, 32331, 33135, 33168, 34350, 35447, 34835, 34572, 35098, 33599, 30732, 29485, 29673, 30523, 32224, 33151, 32622, 33267, 35487, 35784, 33569, 32144, 32324, 32375, 32224, 32280, 32095, 32077, 32577, 32973, 33304, 33628, 33066, 31949, 31808, 32546, 32834, 32611], [31023, 34103, 37615, 38020, 36174, 33387, 29641, 26974, 28396, 32785, 35420, 34416, 32316, 31078, 30186, 29493, 30193, 33007, 36964, 39795, 39621, 36875, 33570, 30540, 27820, 26770, 28234, 30438, 31766, 32635, 33222, 33163, 33366, 34739, 36383, 37030, 36507, 35132, 33170, 30926, 28954, 28413, 29889, 31840, 32685, 32818, 32553, 31833, 31587, 32236, 33771, 36317, 37734, 35902, 33495, 33733, 34284, 31902, 28878, 28450, 29229, 29797, 31421, 33116, 32746, 32289, 33977, 35821, 36697, 38057, 38257, 34960, 30832, 28386, 26876, 27494, 30771, 32593, 31968, 33099, 35686, 35245, 32569, 32101, 33882, 35106, 35472, 35464, 34081, 31485, 29653, 29699, 31009, 32143, 32114, 31451, 31420, 32375, 33388, 33548], [33234, 32599, 31802, 31560, 32091, 32963, 33534, 33575, 33391, 33081, 32575, 32268, 32389, 32781, 33461, 33996, 33542, 32381, 31629, 31487, 31435, 31531, 32242, 33470, 34450, 34510, 33812, 33041, 32521, 32335, 32624, 32943, 32635, 32097, 31997, 32006, 31892, 32249, 33073, 33665, 33932, 33878, 33170, 32388, 32371, 32621, 32532, 32536, 32856, 33060, 32958, 32736, 32490, 32198, 32030, 32202, 32571, 32933, 33217, 33300, 33376, 33692, 33686, 32939, 32304, 32470, 32808, 32524, 31716, 31130, 31448, 32562, 33604, 34051, 34112, 33863, 33251, 32678, 32354, 32136, 32367, 32970, 32860, 32181, 32133, 32272, 31999, 32424, 33495, 33692, 33373, 33502, 33192, 32294, 32294, 33008, 32966, 32497, 32717, 33235], [25798, 22935, 25082, 30747, 36522, 41497, 45208, 43915, 36032, 28596, 27953, 30175, 31027, 32690, 34916, 33937, 29304, 24224, 22887, 26789, 32782, 37858, 42150, 44556, 41238, 33148, 28295, 29735, 31653, 31867, 33398, 34735, 32181, 26881, 23165, 24069, 29002, 34815, 39484, 43015, 43758, 38542, 30550, 27967, 30758, 32410, 32670, 34051, 34334, 31143, 25720, 22134, 24325, 30757, 36492, 40498, 43739, 43020, 35929, 28909, 28959, 32246, 33039, 33476, 35116, 33982, 28153, 21808, 20769, 25781, 32613, 38576, 43701, 46410, 43043, 34102, 27434, 28063, 30968, 31710, 32569, 34000, 32559, 27564, 23170, 23940, 29339, 35075, 39311, 42851, 44062, 39429, 31321, 27588, 29532, 31488, 32467, 34542, 35204, 31575], [30865, 0, 0, 0, 0, 0, 35582, 65535, 65535, 65535, 63057, 51288, 46754, 44425, 49396, 56587, 49687, 21489, 0, 0, 0, 0, 5285, 48893, 65535, 65535, 65535, 58446, 50048, 45904, 45016, 51478, 55809, 42989, 10856, 0, 0, 0, 0, 17704, 61739, 65535, 65535, 65535, 54278, 48437, 45110, 46828, 54730, 55280, 35563, 0, 0, 0, 0, 0, 31652, 65535, 65535, 65535, 64250, 51197, 46488, 44137, 48556, 56441, 52295, 26601, 0, 0, 0, 0, 431, 43209, 65535, 65535, 65535, 59906, 50226, 46020, 45405, 52077, 57210, 45654, 14086, 0, 0, 0, 0, 14586, 58524, 65535, 65535, 65535, 55210, 48613, 44835, 45693, 53752, 56078]], "framecount": 15.0, "time": 1489540246613}
{"dataframe": [[33589, 32195, 31341, 31207, 31095, 31164, 31863, 32769, 33264, 33315, 33445, 33981, 34464, 34455, 34189, 33882, 33298, 32137, 30663, 29727, 29754, 30493, 31845, 33651, 35117, 35571, 35049, 33665, 31867, 31223, 32519, 34067, 34201, 33317, 32270, 31460, 31198, 31244, 31222, 31621, 32832, 33955, 33984, 33483, 33582, 34066, 34211, 34112, 33754, 32779, 31554, 30650, 30075, 30219, 31482, 32828, 33404, 34051, 34908, 34723, 33590, 32828, 32651, 32674, 33008, 33295, 32887, 32202, 31838, 31499, 31211, 31442, 31924, 32461, 33554, 34753, 34699, 33587, 33041, 33259, 32977, 32208, 32148, 32830, 33186, 32636, 31564, 30968, 31445, 32487, 33305, 33636, 33477, 33062, 32828, 32920, 33292, 33848, 34127, 33905], [32771, 35934, 38903, 39646, 37456, 33687, 30184, 27587, 26707, 28558, 31458, 32845, 33141, 33272, 32322, 30647, 30635, 33448, 37526, 39999, 39409, 36770, 33340, 29400, 26220, 26083, 28870, 31736, 33154, 33746, 33519, 32240, 31263, 32172, 34799, 37503, 38692, 37887, 35573, 32315, 28618, 26271, 27413, 30729, 32771, 33048, 32863, 32141, 31221, 31495, 33382, 36189, 38446, 38790, 37349, 34687, 31008, 27623, 26594, 28262, 30738, 32300, 33034, 33290, 32608, 31469, 31581, 33655, 36640, 38814, 38938, 36999, 33778, 29898, 26591, 26150, 29049, 32271, 33111, 32385, 32045, 32324, 32698, 33404, 34795, 36505, 37800, 37843, 35945, 32439, 28749, 26759, 27758, 30556, 32429, 32866, 33040, 32792, 31877, 31492], [31827, 29674, 28228, 28504, 30187, 32474, 34789, 36480, 36637, 35133, 33441, 32882, 33067, 33309, 33594, 33653, 32916, 31324, 29519, 28434, 28698, 30296, 32660, 35094, 36831, 36825, 35071, 33502, 33305, 33304, 32804, 32710, 33061, 32623, 30969, 29166, 28530, 29368, 31088, 33376, 36085, 37648, 36386, 33833, 32730, 32767, 32671, 32999, 33702, 33474, 32076, 30290, 29028, 29006, 30052, 31702, 33938, 36013, 36451, 35262, 33945, 33195, 32909, 33328, 34032, 33864, 32696, 31090, 29424, 28544, 29044, 30459, 32477, 34998, 36940, 36812, 34649, 32603, 32473, 33283, 33434, 33542, 34236, 33774, 31068, 28276, 27697, 28911, 30773, 33327, 36298, 37742, 36154, 33245, 32081, 32872, 33716, 34122, 34471, 34021], [32587, 32873, 33585, 34552, 34608, 33367, 32019, 31366, 31375, 31965, 32593, 32552, 31960, 31436, 31636, 32964, 34704, 35497, 35003, 34040, 33330, 32714, 31697, 30505, 30027, 30840, 32503, 33699, 33660, 33269, 33507, 33718, 33006, 32067, 32246, 33563, 34516, 33984, 32607, 31464, 30941, 31573, 33116, 33567, 32182, 31036, 32019, 34375, 35358, 33667, 31817, 32140, 32914, 32685, 33027, 33725, 32794, 31575, 32152, 32998, 32773, 32686, 32745, 31951, 31334, 31935, 33190, 34609, 35199, 34036, 32681, 32360, 31878, 31403, 32206, 33152, 33144, 33176, 33194, 32202, 31077, 31007, 31752, 33090, 34736, 35494, 34701, 33038, 31608, 31441, 32655, 33716, 33402, 32345, 31355, 30781, 31276, 32465, 32857, 32818], [33452, 34411, 36281, 37232, 35922, 33146, 30474, 28743, 28802, 30770, 32653, 32760, 31794, 31090, 31330, 32548, 33996, 35394, 36924, 37467, 36087, 34012, 32124, 29675, 27601, 28436, 31361, 32845, 32568, 32766, 33262, 32826, 32403, 32987, 34060, 35551, 37279, 37233, 34518, 31278, 29158, 28227, 28984, 30913, 32035, 32300, 33322, 34582, 34009, 32072, 31908, 34435, 36443, 35939, 34947, 34343, 32375, 29708, 28877, 29703, 30799, 32199, 33172, 32422, 31292, 31807, 33562, 35601, 37199, 36976, 35085, 33415, 32288, 30826, 29666, 29820, 30594, 31220, 32027, 32618, 32296, 32022, 32708, 33899, 35477, 37056, 36857, 34555, 32283, 31047, 30176, 30295, 31899, 32763, 31676, 31007, 31824, 31875, 30803, 31500], [33113, 32352, 31587, 31395, 31925, 32739, 33348, 33781, 34097, 33925, 33217, 32634, 32591, 32666, 32424, 32158, 32220, 32347, 32286, 32208, 32202, 32357, 32962, 33823, 34279, 34052, 33321, 32515, 32192, 32302, 32290, 32265, 32782, 33376, 32952, 31863, 31562, 32147, 32639, 33043, 33763, 34163, 33593, 32732, 32540, 32823, 32803, 32415, 32257, 32493, 32661, 32653, 32647, 32365, 31968, 32336, 33278, 33713, 33536, 33211, 32833, 32672, 32961, 33205, 32942, 32493, 32242, 32094, 32085, 32317, 32363, 32179, 32584, 33602, 34160, 33840, 33105, 32519, 32551, 32950, 32910, 32558, 32611, 32749, 32299, 31664, 31548, 32048, 33071, 34062, 33970, 33008, 32647, 33069, 33183, 32926, 32909, 32894, 32585, 32433], [25686, 22329, 24222, 29553, 35186, 40250, 44294, 44218, 37788, 30197, 28506, 30779, 31886, 32686, 34062, 33220, 29165, 24268, 22461, 25900, 31914, 36999, 41429, 45272, 44013, 35733, 28269, 28340, 31349, 32251, 33014, 33956, 31990, 27054, 22677, 22763, 27913, 34589, 39843, 43830, 45565, 41270, 32172, 26859, 28420, 30748, 31509, 33328, 34627, 32192, 27154, 23565, 24688, 29825, 35246, 39365, 43009, 43869, 38267, 30267, 27903, 30314, 31898, 33032, 34947, 34613, 30176, 24046, 21271, 24869, 31763, 37326, 41339, 44547, 43416, 36038, 29375, 29281, 30990, 30767, 32164, 34709, 33294, 27862, 23219, 23216, 27735, 33681, 38763, 42733, 44448, 40703, 32511, 27845, 29893, 32266, 32173, 33120, 34320, 31876], [38260, 2672, 0, 0, 0, 0, 26110, 65535, 65535, 65535, 65535, 53370, 48404, 44992, 47999, 55688, 52268, 27412, 0, 0, 0, 0, 0, 40918, 65535, 65535, 65535, 60218, 49627, 45515, 44951, 51912, 58018, 47574, 17109, 0, 0, 0, 0, 7636, 52756, 65535, 65535, 65535, 56411, 45549, 41463, 44812, 54369, 57429, 42579, 9055, 0, 0, 0, 0, 22124, 65535, 65535, 65535, 65535, 53190, 47526, 45207, 48623, 56108, 54823, 33745, 0, 0, 0, 0, 0, 32513, 65535, 65535, 65535, 65535, 65535, 54902, 42572, 40908, 44235, 36946, 13238, 0, 0, 0, 0, 10580, 54377, 65535, 65535, 65535, 53530, 42353, 37794, 40082, 51125, 57834]], "framecount": 16.0, "time": 1489540246706}
{"dataframe": [[33469, 32594, 31097, 29990, 30068, 30964, 32324, 33872, 34781, 34601, 34008, 33580, 32959, 32167, 32159, 33039, 33587, 33224, 32590, 32054, 31436, 31102, 31635, 32732, 33489, 33279, 32519, 32529, 33436, 33838, 33619, 33973, 34615, 34261, 32803, 31111, 30016, 29880, 30612, 31991, 33497, 34326, 34328, 34003, 33491, 32813, 32485, 32796, 33373, 33896, 34169, 33670, 32285, 30885, 30151, 29989, 30484, 31825, 33451, 34613, 35066, 34864, 34380, 33998, 33583, 32972, 32355, 31910, 31738, 31809, 31723, 31239, 30872, 31309, 32539, 33667, 33794, 33428, 33873, 34943, 35277, 34576, 33586, 32734, 31807, 30518, 29504, 29817, 31005, 31933, 32908, 34483, 35723, 35472, 34027, 32700, 32333, 32645, 32793, 32540], [32580, 34938, 37488, 38624, 37652, 35213, 31880, 28288, 26513, 28241, 31392, 32498, 31995, 32343, 33045, 32495, 31836, 33214, 36219, 38334, 38133, 36290, 33632, 30268, 27292, 27244, 30386, 33029, 32983, 32325, 32328, 31624, 30270, 30543, 33657, 37836, 40083, 39414, 36829, 33024, 28814, 26394, 27386, 30322, 32102, 31944, 31852, 32620, 32623, 31636, 32060, 35002, 38284, 39422, 38095, 35165, 31584, 28489, 27044, 27727, 29811, 31986, 33368, 33582, 32743, 31587, 31248, 32768, 35859, 38374, 38528, 36690, 34012, 31073, 28553, 27818, 29390, 31428, 32146, 32291, 32431, 31552, 30355, 31184, 34410, 38086, 39948, 38870, 35812, 32658, 29807, 27278, 26950, 29602, 32388, 33139, 32900, 32411, 31310, 30533], [32057, 29493, 27973, 28090, 29379, 31513, 34308, 36793, 37397, 35715, 33520, 32738, 33204, 33735, 33914, 33734, 32863, 30921, 28583, 27659, 28827, 30860, 33018, 35563, 37625, 37328, 34714, 32334, 31864, 32472, 33131, 33810, 34269, 33574, 31268, 28647, 27697, 28848, 31167, 33818, 36127, 37145, 36133, 33768, 32136, 32335, 33234, 33831, 34347, 34194, 32352, 29822, 28431, 28350, 29244, 31465, 34535, 36912, 37397, 35769, 33237, 31721, 31762, 32608, 33763, 34762, 34710, 33005, 30154, 27940, 27939, 29661, 31707, 33948, 36257, 36970, 35480, 33812, 33315, 33107, 32882, 33384, 34047, 33382, 31235, 29020, 28176, 28917, 30624, 32891, 35298, 36651, 36089, 34707, 33853, 33209, 32720, 33122, 33764, 33607], [33877, 34882, 34114, 33258, 33839, 34107, 32895, 31335, 30519, 30912, 32138, 32865, 32694, 32377, 32131, 31933, 32343, 33905, 36046, 36819, 35066, 32357, 30844, 30600, 30526, 30460, 31287, 33144, 34303, 33240, 31571, 32148, 34433, 35458, 34565, 33405, 32706, 32121, 31741, 31677, 31515, 31402, 32242, 33797, 34262, 33041, 31801, 31495, 31497, 32399, 34918, 36490, 34906, 32796, 32635, 32326, 30325, 28901, 29550, 31368, 34156, 37332, 38059, 35230, 31700, 29734, 28627, 28591, 31496, 35793, 37009, 34916, 33505, 33668, 32997, 31378, 30495, 30608, 31399, 32721, 33654, 33309, 32353, 32432, 33861, 34882, 34314, 33255, 32523, 31635, 31251, 32327, 33422, 32988, 32212, 32424, 32678, 32240, 31933, 31856], [34506, 36573, 36446, 36322, 36503, 35016, 31969, 29213, 28141, 29368, 31397, 31879, 31576, 32218, 32528, 31595, 31534, 34017, 37900, 40058, 38264, 34329, 31608, 29969, 27852, 27016, 29474, 32741, 33410, 32073, 31568, 33008, 34723, 34991, 34802, 35436, 35776, 35023, 33938, 32139, 29254, 27802, 29731, 32557, 33408, 32923, 32293, 31481, 30957, 31736, 34359, 37422, 38049, 36381, 34952, 33162, 29730, 27285, 27792, 29696, 32371, 35700, 36898, 34573, 31541, 29746, 28594, 29388, 33939, 39131, 40141, 37352, 34166, 31459, 29064, 28272, 29361, 30616, 31202, 32025, 33311, 33490, 32052, 31628, 34231, 37483, 38168, 36602, 34273, 31556, 29502, 29230, 29921, 30576, 31521, 32613, 32763, 32141, 31943, 31991], [32561, 32446, 31986, 31649, 31778, 32400, 33277, 33998, 34267, 33958, 33145, 32426, 32452, 32883, 32868, 32544, 32533, 32333, 31479, 31138, 32058, 33113, 33444, 33572, 34012, 34336, 33708, 32382, 31841, 32425, 32741, 32368, 32348, 32763, 32716, 32295, 32241, 32550, 32825, 32942, 32969, 33170, 33438, 33118, 32608, 32929, 33398, 33151, 32920, 32674, 31759, 31249, 31800, 32208, 32335, 33042, 33830, 34247, 34733, 34578, 32880, 30942, 30492, 31270, 32216, 33096, 33925, 34155, 33390, 32359, 32093, 32408, 32500, 32415, 32605, 33053, 33515, 33521, 32761, 32115, 32551, 33369, 33522, 33148, 32503, 31675, 31422, 32019, 32571, 32787, 33176, 33611, 33731, 33606, 33174, 32511, 32295, 32697, 32977, 32941], [26523, 22879, 24182, 29191, 34458, 38919, 43226, 44924, 39988, 31555, 28059, 30108, 31708, 32161, 33530, 33665, 30187, 24788, 22094, 25268, 31759, 37050, 40988, 44606, 44093, 36490, 28482, 27727, 30791, 32033, 32992, 34507, 33317, 28525, 23447, 22713, 27485, 33761, 38251, 41915, 44524, 41540, 32741, 27005, 29003, 32256, 32899, 34125, 35416, 32678, 26325, 21476, 22477, 28478, 35069, 40030, 43919, 45142, 40331, 32118, 28056, 28902, 29736, 30676, 33440, 34846, 32138, 26838, 22767, 23699, 29771, 36945, 42039, 44818, 43684, 36689, 29063, 27916, 30432, 31064, 31807, 34226, 34327, 29911, 24221, 22681, 26936, 32903, 37401, 41526, 44625, 42077, 33874, 28224, 29284, 31441, 31713, 33044, 34667, 33060], [45621, 13349, 0, 0, 0, 0, 18124, 61734, 65535, 65535, 65535, 56217, 50553, 46530, 49055, 56426, 54195, 32279, 0, 0, 0, 0, 0, 28301, 65535, 65535, 65535, 65535, 59296, 54509, 48771, 48145, 50717, 42969, 17688, 0, 0, 0, 0, 8804, 50189, 65535, 65535, 65535, 56437, 48553, 46560, 45968, 52287, 58011, 45912, 12587, 0, 0, 0, 0, 16009, 61063, 65535, 65535, 65535, 56216, 50599, 46077, 45813, 53241, 54356, 34854, 0, 0, 0, 0, 0, 29308, 65535, 65535, 65535, 64856, 52183, 48013, 45441, 50610, 59941, 54824, 26248, 0, 0, 0, 0, 0, 44456, 65535, 65535, 65535, 60013, 49925, 45946, 45625, 52529, 58633]], "framecount": 17.0, "time": 1489540246800}
{"dataframe": [[32590, 33060, 32741, 31301, 30297, 30767, 32088, 33426, 34316, 34494, 34054, 33299, 32757, 32929, 33419, 33515, 33349, 33010, 32039, 30848, 30528, 31090, 31739, 32366, 33395, 34523, 34865, 34208, 33161, 32489, 32697, 33438, 33643, 33000, 32252, 31673, 30972, 30484, 30761, 31852, 33549, 35084, 35389, 34496, 33188, 31958, 31576, 32591, 33873, 34011, 33277, 32435, 31606, 30950, 30642, 30856, 32021, 33678, 34578, 34639, 34373, 33398, 32066, 32068, 33365, 33958, 33521, 33146, 32488, 31114, 30191, 30451, 31377, 32691, 34082, 34636, 34213, 33716, 33443, 33057, 32892, 33351, 33725, 33277, 32423, 31702, 30885, 30006, 29982, 31286, 33231, 34983, 35855, 35226, 33682, 32658, 32434, 32489, 32778, 33126], [31632, 34766, 38238, 39686, 38503, 35920, 32561, 28767, 26484, 27338, 29958, 31945, 32741, 32843, 32388, 31590, 31362, 32948, 36257, 39042, 39407, 37667, 34642, 30787, 27356, 26226, 27939, 30543, 32016, 32898, 33767, 33256, 31614, 31553, 33965, 36931, 38734, 38895, 37040, 33116, 28680, 26202, 26761, 29288, 31931, 33569, 33978, 33261, 31901, 31002, 31802, 34468, 37366, 38608, 37970, 36002, 32869, 29307, 27020, 27268, 29461, 31666, 32716, 32913, 32886, 32749, 32354, 32506, 34525, 37622, 39244, 38144, 34965, 30988, 27673, 26521, 28079, 30745, 32375, 33052, 33558, 33043, 31441, 31071, 33367, 36732, 38766, 38605, 36787, 34014, 30473, 27033, 26101, 28491, 31450, 32849, 33498, 33706, 32733, 31449], [32643, 30666, 28276, 27749, 29630, 31962, 33890, 35788, 36732, 35807, 34249, 33490, 33205, 32904, 32987, 33411, 33278, 32056, 30325, 29062, 28657, 29297, 31300, 34152, 36416, 36959, 35837, 34315, 33450, 32984, 32703, 33065, 33618, 33137, 31406, 29451, 28398, 28632, 30125, 32802, 35688, 37024, 36208, 34469, 33285, 32961, 32991, 33231, 33774, 34030, 33147, 31130, 28985, 27953, 28532, 30340, 32886, 35563, 37060, 36523, 35009, 33989, 33492, 33131, 33090, 33301, 33126, 31920, 29809, 28123, 28182, 29854, 32103, 34326, 36308, 37182, 36156, 34287, 33148, 32667, 32413, 32781, 33563, 33504, 31899, 29675, 28447, 28768, 30115, 32182, 34843, 36980, 36985, 35077, 33429, 33123, 33116, 32777, 32776, 33211], [31830, 33041, 35342, 36346, 35125, 32913, 31017, 30185, 30483, 31832, 33674, 34015, 32670, 32402, 33201, 32526, 31563, 32279, 32641, 32201, 33771, 36250, 36010, 33668, 31612, 30287, 30345, 31812, 32346, 31523, 31908, 33452, 33693, 32977, 33202, 34086, 34669, 34824, 33898, 31515, 29457, 29859, 32429, 34908, 35203, 33369, 31699, 31369, 31166, 30954, 31961, 33616, 34632, 35075, 34765, 33316, 32011, 32336, 33598, 33622, 31686, 30069, 30743, 31969, 31807, 31660, 32699, 33795, 34777, 36203, 36525, 34401, 31736, 30617, 30399, 30517, 31633, 32864, 32979, 32774, 32851, 32818, 32870, 32951, 32768, 33111, 34159, 34600, 34080, 33264, 31952, 30584, 30986, 32793, 33217, 31918, 31383, 32377, 33411, 33742], [32222, 34467, 38316, 39803, 37235, 33044, 29734, 27985, 27994, 29978, 32448, 33070, 32493, 32669, 32659, 31548, 31444, 33179, 34583, 35337, 37136, 38702, 37040, 32567, 28480, 27086, 28369, 30083, 30482, 31008, 32948, 34265, 33618, 33148, 34528, 36521, 37611, 37304, 34983, 30937, 27510, 26931, 29560, 33616, 35464, 33701, 31617, 31363, 30903, 29769, 30725, 34463, 38220, 39354, 37483, 34241, 31545, 29970, 29521, 30200, 30920, 30807, 30903, 31901, 32609, 32267, 32025, 33405, 36049, 37962, 37925, 36048, 33074, 30465, 29164, 28807, 29303, 30964, 32932, 33554, 32672, 32104, 32468, 32393, 32509, 34681, 37098, 36965, 35566, 34474, 32024, 28694, 28512, 31292, 32205, 30537, 30059, 31621, 32896, 33446], [32929, 32420, 31246, 30977, 32351, 33684, 33864, 33659, 33429, 32894, 32546, 32728, 32819, 32635, 32691, 32880, 32812, 32781, 32995, 32906, 32098, 31200, 31324, 32523, 33639, 33981, 33861, 33599, 33259, 32885, 32560, 32520, 32738, 32739, 32375, 32005, 31825, 31824, 32221, 33187, 34092, 33897, 32829, 32328, 32720, 32953, 32848, 33144, 33629, 33444, 32630, 31907, 31545, 31442, 31760, 32579, 33327, 33441, 33255, 33395, 33606, 33338, 32999, 33053, 32955, 32529, 32421, 32371, 31715, 31235, 31851, 32895, 33468, 33604, 33548, 33363, 33068, 32772, 32707, 32816, 32755, 32650, 32933, 33248, 32787, 31831, 31514, 32011, 32445, 32566, 32984, 33696, 33872, 33425, 33160, 33178, 33000, 32782, 32675, 32407], [28199, 23266, 22531, 27358, 34083, 39396, 43495, 45065, 40312, 31551, 27421, 29549, 31624, 32242, 33879, 34482, 31306, 26283, 23750, 25754, 30022, 33866, 37895, 42572, 43916, 38273, 30766, 29424, 32193, 32804, 32612, 33967, 33413, 28695, 23235, 22139, 26411, 32223, 37009, 41799, 45596, 43443, 34535, 27036, 27167, 30649, 32675, 34515, 36138, 34452, 28789, 22757, 21638, 26403, 32671, 37790, 42626, 45343, 41416, 32776, 28166, 29894, 31856, 32286, 33953, 35070, 31962, 25572, 21043, 22867, 29581, 35971, 40532, 44482, 45095, 38801, 30347, 27822, 29850, 30601, 31206, 33823, 34867, 31389, 25757, 22894, 25447, 31210, 36459, 40463, 43766, 43315, 36306, 28766, 28218, 31347, 32367, 32866, 34170, 33380], [48349, 16451, 0, 0, 0, 0, 9659, 55059, 65535, 65535, 65535, 58221, 51209, 47294, 47262, 53505, 54890, 37523, 1706, 0, 0, 0, 0, 26571, 65535, 65535, 65535, 65535, 52535, 46610, 43584, 46986, 54957, 52967, 29977, 0, 0, 0, 0, 0, 38691, 65535, 65535, 65535, 61585, 50800, 46534, 44875, 50247, 56510, 48388, 19453, 0, 0, 0, 0, 7865, 52024, 65535, 65535, 65535, 56869, 49691, 46273, 46296, 53264, 56737, 41892, 7620, 0, 0, 0, 0, 19953, 64905, 65535, 65535, 65535, 55022, 49594, 45811, 47731, 55365, 53905, 31423, 0, 0, 0, 0, 0, 35624, 65535, 65535, 65535, 63638, 50621, 45884, 44396, 49335, 56223]], "framecount": 18.0, "time": 1489540246910}
{"dataframe": [[33048, 32500, 31664, 30776, 30593, 31661, 33047, 33475, 33424, 33897, 34310, 33953, 33481, 33397, 33231, 32631, 31832, 31377, 31615, 32176, 32448, 32357, 32141, 32171, 32888, 33944, 34231, 33540, 32947, 33015, 33146, 33136, 33393, 33459, 32587, 31379, 30839, 31019, 31664, 32513, 33130, 33630, 34228, 34233, 33281, 32314, 32177, 32802, 33692, 34095, 33636, 32792, 31962, 31186, 30745, 30872, 31505, 32683, 34039, 34577, 34091, 33483, 33188, 32865, 32556, 32777, 33537, 33947, 33233, 31905, 30966, 30583, 30699, 31567, 32823, 33722, 34230, 34469, 34183, 33615, 33396, 33437, 33254, 32954, 32627, 31694, 30348, 29828, 30502, 31932, 33703, 34792, 34724, 34562, 34547, 33584, 31994, 31442, 32185, 33047], [31619, 33834, 37031, 39011, 38397, 35691, 32011, 28665, 27254, 28259, 30372, 32195, 33364, 33463, 32128, 30702, 30956, 32907, 35696, 38137, 38616, 37060, 34753, 31894, 28711, 27146, 28408, 30991, 32746, 33144, 32649, 31569, 30482, 30704, 33141, 36746, 39280, 39600, 37859, 34477, 30402, 27257, 26459, 27987, 30173, 31860, 33434, 34440, 33583, 31877, 31736, 33509, 35971, 38064, 38466, 36396, 33026, 29774, 27327, 27093, 29555, 32259, 33241, 33324, 33032, 31781, 30579, 31549, 34834, 38049, 38991, 37776, 35595, 32641, 28911, 26296, 27222, 30647, 32905, 33012, 32721, 32452, 31612, 30990, 32226, 35645, 39020, 39772, 37940, 34747, 30817, 27562, 26767, 28140, 29929, 31491, 33074, 33919, 33088, 31568], [33024, 31481, 29377, 28444, 29444, 31407, 33237, 34978, 36418, 36265, 34429, 32845, 32710, 33336, 33781, 33668, 33054, 32110, 30735, 29310, 28931, 29900, 31517, 33428, 35286, 35893, 34877, 33854, 33948, 34327, 34286, 34041, 33497, 32309, 30589, 29054, 28619, 29469, 30939, 32406, 33926, 35581, 36346, 35387, 33961, 33500, 33567, 33493, 33415, 33327, 32893, 31557, 29231, 27570, 28336, 30709, 33007, 35239, 37170, 37044, 34820, 33023, 32888, 33251, 33296, 33404, 33584, 32772, 30385, 28107, 28089, 29885, 31777, 33602, 35693, 36870, 35961, 34105, 33212, 33256, 33323, 33481, 33727, 33155, 31317, 29243, 28433, 29160, 30609, 32331, 34285, 35992, 36496, 35405, 33834, 33124, 33127, 33204, 33404, 33607], [33694, 33548, 33585, 33568, 32715, 31683, 32011, 32928, 32802, 32466, 33026, 33648, 33377, 32145, 30896, 31079, 32162, 32458, 32618, 33799, 34808, 34783, 34461, 33781, 32545, 31762, 31690, 31549, 31487, 31735, 31589, 31469, 32492, 33709, 34028, 34384, 34765, 33841, 32523, 32710, 33471, 32900, 31724, 31529, 31866, 31670, 31271, 31690, 32940, 33599, 32989, 32859, 34457, 35744, 34848, 33338, 32693, 31611, 29755, 29753, 32415, 34094, 32648, 31409, 32894, 34431, 33906, 33192, 33316, 32808, 31705, 31729, 33024, 34274, 34551, 33648, 32295, 31629, 31611, 31466, 31230, 31258, 31582, 32577, 34299, 35511, 35391, 34610, 33683, 32665, 31886, 31205, 30560, 31089, 32922, 33860, 32728, 31446, 31988, 33373], [34492, 35840, 36583, 36398, 34866, 32702, 31860, 31610, 29777, 28493, 30911, 34195, 33936, 31569, 30769, 31461, 31932, 32436, 33933, 36065, 37660, 37672, 35791, 32992, 30490, 28878, 28739, 29847, 30810, 31074, 31248, 31911, 33066, 34077, 35028, 36631, 37638, 36286, 33999, 32899, 31858, 29690, 28511, 29710, 31282, 31591, 31303, 31721, 33280, 34420, 33798, 33508, 35545, 37622, 37141, 34939, 32338, 29404, 27342, 28207, 31156, 32824, 32550, 32619, 33336, 33327, 33005, 33387, 34092, 34451, 34524, 34707, 35050, 34707, 32704, 29963, 28938, 30035, 31090, 31234, 31571, 32123, 32036, 32133, 33802, 36349, 38039, 38036, 36237, 33412, 30753, 28504, 27542, 29448, 32425, 33072, 32036, 31703, 32063, 32500], [32140, 32032, 31756, 31589, 32217, 33226, 33629, 33530, 33639, 33696, 33116, 32475, 32524, 32797, 32661, 32493, 32802, 33009, 32332, 31601, 32022, 32727, 32631, 32752, 33640, 33967, 33423, 32952, 32551, 32159, 32433, 33019, 33075, 32992, 33031, 32523, 31749, 31746, 32318, 32578, 32618, 33072, 33740, 33903, 33595, 33414, 33320, 32741, 31875, 31642, 32208, 32653, 32238, 31537, 31754, 32856, 33770, 34247, 34508, 33992, 32619, 31731, 32032, 32485, 32317, 32269, 32991, 33643, 33248, 32375, 32026, 32131, 32309, 32586, 32925, 33183, 33326, 33353, 33246, 32984, 32773, 32927, 33202, 33014, 32356, 31764, 31578, 31699, 32029, 32700, 33564, 34055, 33928, 33439, 32806, 32407, 32752, 33291, 32934, 32126], [29245, 24190, 22444, 26081, 32412, 38052, 42541, 45015, 41928, 33791, 28501, 29624, 31393, 31345, 32730, 34476, 32587, 27170, 22518, 23310, 29330, 35487, 39362, 42778, 44182, 39070, 30771, 28089, 30710, 32121, 32527, 34352, 34663, 30710, 24668, 21562, 24449, 30866, 36587, 40968, 44388, 43575, 36362, 29072, 28600, 31551, 32651, 33302, 34311, 33077, 28791, 23579, 21600, 25420, 32233, 38255, 43187, 46133, 43044, 34209, 27878, 28393, 30386, 30986, 33064, 35250, 33141, 27253, 22599, 23495, 29140, 34934, 38906, 42407, 44115, 40029, 31955, 27853, 29809, 32167, 32808, 33878, 34174, 30855, 25214, 22165, 24569, 30181, 35725, 40483, 44057, 43738, 37700, 30670, 29027, 31048, 32039, 32655, 33683, 32668], [50454, 23317, 0, 0, 0, 0, 3559, 44683, 65535, 65535, 65535, 61029, 53770, 48915, 45383, 50233, 54970, 41917, 8092, 0, 0, 0, 0, 21583, 65535, 65535, 65535, 65535, 50758, 44176, 41670, 45623, 56377, 59163, 39729, 1594, 0, 0, 0, 0, 27783, 65535, 65535, 65535, 65535, 56783, 51119, 46413, 48410, 53492, 46654, 20626, 0, 0, 0, 0, 4358, 46897, 65535, 65535, 65535, 56648, 45124, 40450, 41443, 51582, 60645, 51593, 19804, 0, 0, 0, 0, 9205, 55322, 65535, 65535, 65535, 57181, 51775, 48378, 48844, 55245, 54850, 34981, 0, 0, 0, 0, 0, 29396, 65535, 65535, 65535, 65535, 51798, 45711, 41904, 46368, 56459]], "framecount": 19.0, "time": 1489540247019}
{"dataframe": [[33399, 33148, 32087, 30915, 31027, 32238, 33021, 33055, 33138, 33458, 33609, 33313, 32788, 32816, 33565, 34075, 34002, 33729, 32727, 30799, 29443, 29672, 30892, 32499, 34144, 35046, 34787, 33959, 33271, 32878, 32951, 33562, 33957, 33405, 32265, 31211, 30460, 30275, 30969, 32220, 33255, 33763, 34108, 34333, 34006, 33516, 33478, 33337, 32883, 32992, 33464, 33082, 31756, 30406, 29679, 29880, 31152, 33013, 34467, 35067, 35102, 34807, 34319, 33823, 33257, 32522, 32014, 32016, 31806, 30820, 29956, 30307, 31685, 33169, 34299, 35145, 35344, 34392, 33037, 32488, 32599, 32677, 32831, 33027, 32723, 32079, 31641, 31364, 31224, 31439, 31994, 32921, 34036, 34550, 34484, 34569, 34125, 32596, 31792, 32566], [31428, 33507, 36822, 39301, 39210, 36764, 33398, 29655, 26429, 26162, 28951, 31643, 32955, 33727, 33546, 32258, 31223, 31569, 33990, 37702, 39681, 38482, 35751, 32481, 28688, 26273, 27183, 30018, 32211, 33236, 33268, 32246, 31201, 31359, 32929, 35704, 38555, 39522, 38076, 35112, 31165, 27320, 26002, 28020, 30851, 32210, 32636, 32824, 32326, 31847, 32698, 34593, 36606, 38107, 38171, 36421, 33591, 30326, 27603, 27389, 29609, 31341, 31551, 31817, 32183, 31926, 32108, 33368, 35133, 37378, 39296, 38777, 35654, 31894, 28551, 26375, 27096, 30191, 32393, 32773, 33030, 33043, 31863, 30994, 32451, 35741, 38532, 39031, 37376, 34821, 31844, 28550, 26644, 27819, 30350, 31547, 32119, 33288, 33460, 32121], [33085, 31458, 29493, 28476, 28792, 30027, 32145, 34956, 36972, 36704, 34967, 33892, 33769, 33419, 32886, 32930, 33146, 32425, 30489, 28675, 28562, 29830, 31368, 33327, 35656, 36817, 36001, 34439, 33443, 33121, 33225, 33523, 33533, 32883, 31502, 29690, 28573, 29160, 30718, 32023, 33520, 35696, 36858, 35738, 34026, 33333, 33072, 33008, 33551, 33796, 32927, 31466, 29782, 28340, 28332, 29859, 31985, 34603, 37060, 37286, 35348, 33919, 33773, 33525, 33046, 32905, 32679, 31995, 30820, 29230, 28275, 29075, 31123, 33442, 35826, 37396, 36715, 34497, 33038, 32815, 32810, 32989, 33531, 33560, 32315, 30162, 28391, 28232, 29647, 31766, 34223, 36534, 37181, 35680, 33934, 33235, 32867, 32761, 33360, 33704], [33524, 32772, 32822, 33562, 34044, 34458, 34529, 33202, 31359, 31139, 32147, 32071, 30869, 30606, 31537, 32287, 33166, 34994, 36247, 35614, 34335, 33352, 32175, 30986, 30448, 30577, 31322, 32502, 33319, 33347, 33038, 32656, 32374, 32967, 34383, 35075, 34129, 32369, 31420, 32120, 33117, 32639, 31521, 31516, 32407, 33179, 33327, 32758, 32278, 32457, 32484, 32233, 32895, 34577, 35829, 35314, 33150, 30969, 30210, 30753, 31667, 32332, 32571, 32481, 32514, 32964, 33267, 33220, 33664, 34416, 34540, 34574, 34760, 33531, 30697, 28631, 28833, 30540, 32557, 33958, 34173, 33733, 33519, 33462, 33404, 33824, 34461, 34245, 33146, 31987, 30923, 29997, 30246, 32210, 34233, 34563, 33691, 32670, 31708, 31288], [33106, 33937, 35242, 36892, 37643, 36483, 33671, 30112, 27595, 28351, 31391, 32669, 31424, 30566, 30802, 31338, 33097, 35831, 37403, 37672, 37433, 35774, 32765, 30175, 28420, 27576, 28823, 31505, 33273, 33794, 33809, 32849, 31454, 31817, 34308, 36702, 36936, 35082, 33200, 32695, 32163, 30431, 29366, 30362, 31980, 32921, 33041, 32224, 31175, 30892, 31463, 33182, 36077, 38539, 38948, 36953, 33269, 29578, 27563, 27882, 29790, 31568, 32403, 32693, 32437, 31917, 32329, 33554, 34325, 35248, 37515, 39236, 37803, 33681, 28732, 25121, 25341, 28867, 32274, 33923, 34183, 33416, 32721, 33028, 33777, 34930, 36844, 37817, 36166, 33177, 30475, 28053, 27170, 29390, 32415, 33427, 33348, 33108, 32022, 31021], [32059, 32423, 32284, 31983, 32329, 33043, 33352, 33354, 33440, 33197, 32519, 32426, 33084, 33198, 32630, 32651, 33154, 32907, 32068, 31688, 31877, 32224, 32730, 33346, 33704, 33671, 33392, 33011, 32770, 32732, 32661, 32645, 32790, 32566, 31970, 31884, 32341, 32625, 32759, 32945, 33068, 33386, 33808, 33535, 32680, 32235, 32370, 32650, 32929, 33047, 32878, 32615, 32314, 31914, 31751, 32164, 32937, 33639, 34016, 33779, 32938, 32380, 32693, 33037, 32731, 32454, 32732, 32971, 32633, 32134, 31932, 31742, 31650, 32449, 33861, 34613, 34383, 33712, 32928, 32325, 32143, 32212, 32352, 32550, 32595, 32348, 32119, 32151, 32337, 32796, 33680, 34331, 33888, 32716, 32091, 32374, 32663, 32577, 32719, 33088], [28566, 23587, 22041, 26216, 32977, 38457, 42578, 45253, 42833, 34385, 27570, 28233, 31251, 31880, 32803, 34427, 32998, 28004, 23245, 23039, 27916, 34138, 39087, 43162, 44938, 40774, 32505, 27880, 28994, 30688, 31609, 33790, 34829, 31387, 25467, 22425, 25137, 31219, 36516, 40100, 43151, 43432, 37331, 29397, 28026, 31249, 32249, 32404, 34362, 34450, 30106, 24338, 21915, 25059, 31421, 37199, 41657, 45043, 43808, 35713, 27980, 28033, 31467, 32322, 32903, 34409, 33007, 27757, 22786, 22696, 27734, 33875, 38611, 42795, 45222, 41483, 32723, 27666, 29310, 31444, 31999, 33922, 35142, 31784, 25600, 21701, 23274, 29082, 35365, 40426, 44703, 45765, 39652, 30269, 26845, 29470, 31385, 32110, 33822, 34007], [54326, 29367, 0, 0, 0, 0, 0, 40811, 65535, 65535, 65535, 61563, 50873, 46285, 44416, 50093, 56092, 46536, 16359, 0, 0, 0, 0, 11708, 56010, 65535, 65535, 65535, 55817, 47941, 44299, 45675, 54075, 57528, 41442, 6032, 0, 0, 0, 0, 23502, 65535, 65535, 65535, 65535, 51687, 45979, 43239, 46849, 56046, 55557, 33174, 0, 0, 0, 0, 0, 35060, 65535, 65535, 65535, 63501, 52428, 48316, 46530, 51466, 57606, 49111, 18999, 0, 0, 0, 0, 7220, 52546, 65535, 65535, 65535, 58141, 49381, 44961, 44558, 51582, 55451, 41410, 8288, 0, 0, 0, 0, 19590, 64478, 65535, 65535, 65535, 53666, 48111, 45089, 47708, 55662]], "framecount": 20.0, "time": 1489540247113}
