{"dataframe": [[32768, 32768, 32768, 32768, 32768, 32768, 32768, 32768, 32768, 32768, 32768, 32768, 32768, 32768, 32768, 32768, 32768, 32768, 32768, 32768, 32768, 32768, 32768, 32768, 32768, 32768, 32768, 32768, 32768, 32768, 32768, 32768, 32768, 32768, 32768, 32768, 32768, 32768, 32768, 32768, 32768, 32768, 32768, 32768, 32768, 32768, 32850, 33435, 34477, 34621, 33308, 32098, 32233, 32799, 32729, 32441, 32439, 32317, 31899, 31812, 32415, 33273, 33747, 33586, 33032, 32467, 32174, 32434, 33248, 34100, 34360, 33708, 32453, 31476, 31057, 30669, 30721, 32071, 33547, 33583, 33464, 34762, 35692, 34458, 32888, 32686, 32502, 31592, 31119, 30943, 30286, 30321, 31911, 33871, 35541, 36602, 35425, 32525, 31269, 31854], [32768, 32768, 32768, 32768, 32768, 32768, 32768, 32768, 32768, 32768, 32768, 32768, 32768, 32768, 32768, 32768, 32768, 32768, 32768, 32768, 32768, 32768, 32768, 32768, 32768, 32768, 32768, 32768, 32768, 32768, 32768, 32768, 32768, 32768, 32768, 32768, 32768, 32768, 32768, 32768, 32768, 32768, 32768, 32768, 32768, 32768, 31006, 31963, 31107, 31242, 32533, 32356, 30419, 30205, 33745, 38281, 40435, 39803, 37069, 32790, 28545, 26516, 27441, 29776, 31513, 32333, 32785, 32552, 31407, 30793, 32530, 36164, 39027, 39329, 37850, 35463, 31428, 26920, 26023, 29256, 32045, 32295, 32316, 32801, 31995, 30291, 30427, 33335, 36912, 39060, 39230, 37353, 34108, 30724, 27792, 26703, 29124, 32885, 33983, 32513], [32768, 32768, 32768, 32768, 32768, 32768, 32768, 32768, 32768, 32768, 32768, 32768, 32768, 32768, 32768, 32768, 32768, 32768, 32768, 32768, 32768, 32768, 32768, 32768, 32768, 32768, 32768, 32768, 32768, 32768, 32768, 32768, 32768, 32768, 32768, 32768, 32768, 32768, 32768, 32768, 32768, 32768, 32768, 32768, 32768, 32768, 24957, 19097, 24770, 34250, 41345, 44910, 44240, 38678, 29859, 21696, 17804, 19033, 24124, 31725, 39416, 42929, 41063, 38154, 36840, 34886, 32360, 32529, 34859, 35406, 32308, 26865, 22342, 21939, 25645, 30951, 36379, 40604, 40929, 37658, 35361, 35598, 35093, 33418, 33861, 35598, 33651, 27525, 22587, 22134, 24611, 28614, 34226, 39812, 42185, 40380, 37053, 34691, 32994, 32125], [32768, 32768, 32768, 32768, 32768, 32768, 32768, 32768, 32768, 32768, 32768, 32768, 32768, 32768, 32768, 32768, 32768, 32768, 32768, 32768, 32768, 32768, 32768, 32768, 32768, 32768, 32768, 32768, 32768, 32768, 32768, 32768, 32768, 32768, 32768, 32768, 32768, 32768, 32768, 32768, 32768, 32768, 32768, 32768, 32768, 32768, 42298, 42028, 38477, 34067, 28752, 25353, 25595, 28381, 33087, 37832, 39487, 38365, 36363, 33013, 29333, 28971, 31252, 31690, 30509, 30691, 30892, 30325, 32561, 37162, 38747, 36753, 34980, 33842, 31580, 29005, 28202, 29497, 31595, 33392, 34453, 34332, 33060, 32148, 33151, 34590, 33766, 32293, 33132, 34120, 32812, 31650, 32019, 31930, 31540, 32344, 33136, 32974, 33108, 33305], [32768, 32768, 32768, 32768, 32768, 32768, 32768, 32768, 32768, 32768, 32768, 32768, 32768, 32768, 32768, 32768, 32768, 32768, 32768, 32768, 32768, 32768, 32768, 32768, 32768, 32768, 32768, 32768, 32768, 32768, 32768, 32768, 32768, 32768, 32768, 32768, 32768, 32768, 32768, 32768, 32768, 32768, 32768, 32768, 32768, 32768, 30631, 33425, 35389, 35238, 33093, 30946, 30315, 31577, 34351, 36399, 36059, 35121, 34863, 33497, 30736, 29232, 29893, 30819, 31240, 31872, 32258, 32024, 32236, 33047, 33912, 35579, 37842, 38322, 35878, 31985, 28786, 27902, 29403, 30963, 30765, 30649, 32378, 34243, 35081, 35191, 33929, 32775, 34319, 36381, 35699, 33395, 30953, 28346, 27617, 30382, 33659, 34440, 33977, 33575], [32768, 32768, 32768, 32768, 32768, 32768, 32768, 32768, 32768, 32768, 32768, 32768, 32768, 32768, 32768, 32768, 32768, 32768, 32768, 32768, 32768, 32768, 32768, 32768, 32768, 32768, 32768, 32768, 32768, 32768, 32768, 32768, 32768, 32768, 32768, 32768, 32768, 32768, 32768, 32768, 32768, 32768, 32768, 32768, 32768, 32768, 34121, 31934, 31022, 31514, 32250, 32705, 33047, 32784, 31515, 30396, 30641, 31760, 32973, 34386, 35600, 35430, 33885, 32497, 32139, 32298, 32597, 33194, 33744, 33318, 31618, 29777, 29325, 30502, 32374, 34170, 35551, 36048, 35270, 33573, 32086, 31852, 32521, 32689, 32272, 32466, 32882, 32111, 30806, 30555, 31249, 32264, 33683, 35008, 35229, 34434, 33644, 33227, 32756, 32279], [32768, 32768, 32768, 32768, 32768, 32768, 32768, 32768, 32768, 32768, 32768, 32768, 32768, 32768, 32768, 32768, 32768, 32768, 32768, 32768, 32768, 32768, 32768, 32768, 32768, 32768, 32768, 32768, 32768, 32768, 32768, 32768, 32768, 32768, 32768, 32768, 32768, 32768, 32768, 32768, 32768, 32768, 32768, 32768, 32768, 32768, 27349, 29224, 31203, 32060, 33962, 34444, 30679, 24494, 20716, 22947, 29651, 36570, 42335, 46891, 46335, 37736, 28266, 26903, 30352, 31778, 32782, 34857, 34101, 28888, 22490, 20215, 24862, 32796, 38954, 43520, 46946, 43979, 33375, 25849, 28215, 32625, 33372, 34284, 35215, 32005, 25923, 21231, 20941, 26241, 34403, 41049, 45344, 46878, 41799, 31558, 26084, 28415, 31284, 32492], [32768, 32768, 32768, 32768, 32768, 32768, 32768, 32768, 32768, 32768, 32768, 32768, 32768, 32768, 32768, 32768, 32768, 32768, 32768, 32768, 32768, 32768, 32768, 32768, 32768, 32768, 32768, 32768, 32768, 32768, 32768, 32768, 32768, 32768, 32768, 32768, 32768, 32768, 32768, 32768, 32768, 32768, 32768, 32768, 32768, 32768, 30024, 29906, 30302, 31089, 32092, 33113, 33973, 34536, 34733, 34567, 34103, 33451, 32744, 32112, 31657, 31442, 31480, 31739, 32153, 32633, 33089, 33444, 33644, 33672, 33538, 33283, 32963, 32640, 32372, 32200, 32144, 32203, 32355, 32563, 32787, 32985, 33126, 33189, 33173, 33087, 32954, 32801, 32658, 32548, 32487, 32482, 32527, 32609, 32711, 32813, 32897, 32949, 32965, 32944]], "framecount": 0.0, "time": 1489540166104}
{"dataframe": [[31671, 31449, 32900, 33990, 33231, 32574, 32683, 32156, 31531, 32083, 32898, 33174, 33637, 34031, 33516, 32833, 32730, 32598, 32329, 32525, 32881, 32833, 32639, 32446, 32020, 31695, 32047, 32900, 33539, 33586, 33431, 33547, 33445, 32631, 32100, 32789, 33804, 33741, 32221, 30295, 29950, 31508, 33028, 33820, 34675, 34909, 33977, 33320, 33035, 31748, 30622, 31402, 32747, 33242, 33457, 33413, 32936, 32817, 32768, 32087, 31908, 32786, 33173, 32698, 32703, 33163, 33141, 33025, 33295, 33385, 33099, 32775, 32358, 31816, 31521, 31708, 32248, 32904, 33413, 33507, 33397, 33640, 33895, 33247, 32165, 32038, 32716, 32732, 31836, 31375, 32095, 33115, 33492, 33395, 33257, 33049, 32771, 32627, 32659, 32733], [31067, 30227, 29887, 31283, 34751, 38208, 39652, 39065, 36923, 33261, 29116, 26905, 27869, 30194, 31554, 32003, 32211, 31582, 30248, 30095, 32509, 36564, 39750, 40443, 39052, 36183, 31774, 27317, 25936, 28158, 30809, 31740, 31743, 31562, 31068, 30700, 31316, 33724, 37840, 41238, 41231, 38485, 34852, 30024, 25146, 24331, 27755, 30670, 31477, 32539, 33893, 33463, 31741, 31547, 34213, 37929, 39766, 38860, 36566, 33595, 29723, 26580, 26692, 29269, 31224, 31857, 32249, 32122, 31113, 30697, 32567, 36431, 39977, 40980, 39166, 35558, 31063, 26901, 25212, 26996, 30190, 32088, 32449, 32582, 32947, 32974, 32705, 33437, 35935, 38804, 39635, 37399, 33243, 29141, 26649, 26776, 29046, 31349, 32612, 33446], [33426, 35381, 34859, 31403, 26718, 23135, 22793, 25595, 29894, 35239, 40892, 43428, 40692, 35943, 33337, 32696, 32424, 32774, 33946, 34363, 31782, 26630, 22863, 22771, 25153, 30339, 38899, 45106, 42676, 35882, 32665, 32281, 32075, 34725, 38767, 37678, 32824, 30280, 27363, 19969, 14921, 18748, 27729, 38231, 48477, 51830, 46429, 40428, 37578, 33569, 28001, 25049, 25249, 25847, 25528, 25037, 25824, 28977, 34042, 39268, 43098, 43949, 40628, 35141, 31320, 30056, 30091, 31291, 33319, 34035, 31707, 27462, 24521, 25010, 28182, 32230, 36545, 40451, 41535, 38773, 34931, 32635, 31824, 32282, 33939, 35078, 33820, 30072, 25332, 22448, 23900, 28797, 34110, 38506, 41375, 40816, 37169, 34010, 32818, 32435], [32336, 31248, 31444, 32518, 33765, 34912, 35677, 35696, 34510, 32045, 29296, 28342, 30335, 33253, 34115, 32906, 32029, 33311, 35716, 35162, 30182, 26747, 30479, 37205, 39456, 37139, 34294, 31860, 29331, 27779, 28421, 30887, 32661, 31757, 31030, 34345, 39293, 40764, 37684, 31698, 26479, 26999, 32001, 34738, 33764, 32491, 31656, 30738, 30497, 31121, 32529, 34445, 35579, 35743, 35437, 34058, 32948, 33913, 33919, 30672, 28152, 29037, 30897, 32306, 33733, 34364, 33766, 33023, 32486, 32143, 33081, 35257, 36395, 35285, 33318, 31859, 30771, 29836, 29558, 30081, 31092, 32991, 35554, 36073, 33362, 31224, 32464, 34314, 34385, 34249, 34344, 32958, 30889, 30225, 30630, 31461, 32918, 33875, 33295, 32073], [32527, 31438, 31504, 32376, 33856, 35771, 36602, 35637, 33936, 31912, 29525, 28412, 29820, 32026, 33151, 33466, 33427, 32987, 32378, 31888, 32294, 34108, 35839, 35953, 35122, 34204, 32705, 30637, 29358, 29546, 30705, 32382, 33351, 32428, 31244, 31734, 33057, 34291, 35562, 36290, 36013, 35009, 33798, 32915, 31711, 29487, 27965, 28615, 29984, 31021, 32681, 34673, 35410, 35131, 35017, 34966, 35223, 36206, 35689, 31965, 28115, 27544, 29264, 30987, 32294, 33230, 33390, 32949, 32505, 32435, 33296, 35196, 36781, 36771, 35570, 34003, 31877, 29119, 27095, 27244, 29767, 34001, 37248, 36075, 32143, 30360, 31067, 32179, 34284, 37118, 37865, 35682, 32589, 30223, 29002, 29282, 30885, 32392, 32746, 32471], [32362, 32928, 33133, 32344, 30864, 29819, 30102, 31401, 32873, 34397, 35909, 36257, 34754, 32889, 32216, 32247, 32218, 32444, 32933, 32832, 31702, 30418, 30236, 31123, 32215, 33405, 34883, 35912, 35453, 33773, 32411, 32158, 32263, 32227, 32550, 33062, 32781, 31742, 30931, 30840, 31492, 32648, 33547, 33889, 34225, 34401, 33839, 33207, 33153, 33078, 32901, 33200, 33353, 32354, 30710, 29671, 29594, 30332, 32049, 34393, 36203, 36566, 35381, 33587, 32541, 32337, 32170, 32142, 32696, 33062, 32170, 30528, 29694, 30257, 31579, 33056, 34625, 36068, 36387, 34981, 33155, 32389, 32102, 31541, 31643, 32654, 32891, 31745, 30719, 30695, 31222, 32131, 33546, 35153, 36198, 35812, 34112, 32414, 31466, 31100], [34852, 35763, 31760, 25048, 20548, 21886, 28510, 36093, 41735, 45736, 46231, 39417, 29626, 26549, 29512, 31285, 32269, 34725, 35028, 30577, 24175, 21057, 24059, 30515, 36628, 42249, 46840, 45445, 36331, 28070, 27772, 30387, 30946, 32395, 34882, 33752, 28030, 22056, 21474, 27377, 34930, 40398, 44305, 45710, 40620, 30764, 25606, 28317, 31826, 33217, 35458, 36785, 33143, 25929, 20701, 21529, 27199, 33634, 39419, 44962, 47020, 41223, 31867, 28280, 30013, 30592, 30919, 33678, 35198, 31628, 24500, 19855, 22646, 30411, 37324, 42433, 46657, 45696, 36717, 28206, 28122, 30683, 30373, 31784, 35538, 35172, 29084, 22273, 20658, 25744, 32799, 37892, 42472, 46263, 43801, 34820, 28570, 29391, 31085, 31118], [32895, 32828, 32757, 32695, 32652, 32633, 32640, 32668, 32711, 32760, 32805, 32839, 32857, 32858, 32843, 32816, 32783, 32751, 32725, 32709, 32705, 32712, 32728, 32749, 32772, 32791, 32805, 32810, 32808, 32798, 32785, 32769, 32755, 32745, 32739, 32739, 32744, 32753, 32763, 32773, 32781, 32786, 32787, 32785, 32780, 32773, 32766, 32760, 32756, 32754, 32755, 32758, 32762, 32767, 32772, 32775, 32776, 32776, 32775, 32772, 32769, 32766, 32763, 32762, 32761, 32762, 32764, 32766, 32768, 32770, 32771, 32772, 32771, 32771, 32769, 32768, 32766, 32765, 32765, 32765, 32765, 32766, 32767, 32768, 32769, 32769, 32769, 32769, 32769, 32768, 32767, 32767, 32766, 32766, 32766, 32767, 32767, 32767, 32768, 32768]], "framecount": 1.0, "time": 1489540166338}
{"dataframe": [[32727, 32693, 32937, 33467, 33657, 33234, 32643, 31828, 30749, 30694, 32252, 33674, 33838, 33944, 34423, 33718, 31880, 31387, 32693, 33475, 33051, 32816, 32858, 32354, 31814, 32058, 32762, 33268, 33368, 33061, 32405, 31814, 31980, 32888, 33696, 34024, 33989, 33382, 32490, 32242, 32313, 31675, 31051, 31651, 32848, 33613, 33788, 33275, 32462, 32479, 33645, 34907, 34981, 33876, 32702, 31588, 30185, 29655, 30776, 32123, 32554, 32652, 32956, 33453, 34188, 34624, 34238, 33897, 34105, 33855, 33009, 32365, 31619, 30716, 30698, 31349, 31565, 31751, 32448, 32857, 33075, 34169, 35407, 35421, 34759, 34143, 33162, 31962, 31031, 30152, 29619, 30337, 32039, 33479, 34251, 34699, 34634, 34082, 33728, 33052], [33688, 32571, 31007, 31210, 34018, 37446, 38956, 38367, 36557, 33333, 29000, 25923, 26466, 29957, 33034, 33903, 33964, 33632, 31524, 29265, 30428, 34485, 37931, 39428, 39040, 36069, 31301, 27805, 27571, 29560, 31568, 32704, 33128, 32488, 30625, 28754, 28687, 31840, 37490, 41648, 41326, 38326, 35008, 30947, 26992, 26157, 28267, 30219, 31307, 32435, 32825, 32169, 32020, 32995, 34824, 37627, 39712, 38398, 34330, 30276, 27306, 26051, 27666, 31092, 33963, 35698, 36041, 34280, 31574, 29974, 30407, 33092, 36671, 38350, 37269, 34867, 31969, 28992, 27638, 28816, 30793, 32146, 33286, 33889, 32988, 31139, 30094, 31739, 36054, 39618, 39676, 37351, 34103, 30026, 26717, 26585, 29127, 31566, 32716, 33416], [32947, 34505, 35293, 33472, 29049, 24515, 23056, 24676, 27388, 31734, 38360, 43235, 42240, 37869, 35068, 34332, 33882, 33628, 33605, 32618, 29678, 25431, 22291, 22450, 26085, 32027, 38533, 43088, 43275, 39365, 34867, 32473, 31746, 32042, 33437, 34544, 33321, 29626, 25481, 23445, 24693, 28322, 32948, 38076, 41998, 41323, 36455, 32734, 32794, 34110, 34942, 35664, 35353, 32485, 27637, 23255, 21512, 23181, 28141, 34825, 40116, 42085, 41150, 38707, 36228, 34325, 32993, 32769, 33327, 32615, 29314, 24730, 22120, 23765, 28252, 32731, 37001, 41363, 42840, 39417, 34707, 32628, 32452, 32746, 33708, 34561, 33644, 30302, 25663, 22558, 23160, 27057, 32729, 38654, 42475, 42078, 38403, 34779, 32947, 32318], [31479, 32436, 34912, 36491, 34710, 31027, 29385, 31057, 33590, 34575, 34022, 33266, 33128, 33147, 32581, 31593, 30753, 30470, 30826, 31171, 31514, 33295, 36318, 38290, 38581, 37337, 33454, 28711, 27386, 28842, 29003, 28351, 30372, 34552, 36778, 35643, 34187, 34557, 35230, 34740, 33680, 32856, 32290, 31195, 29307, 28732, 31049, 33457, 32890, 31665, 33227, 35648, 35518, 34046, 33377, 32724, 32404, 33678, 33976, 31165, 28862, 30372, 33297, 34403, 33954, 33124, 32119, 31398, 31240, 31438, 32689, 35181, 36925, 36587, 35106, 33226, 30888, 28780, 28200, 29693, 32168, 33788, 33955, 33478, 33014, 32588, 32591, 33709, 35325, 35808, 34853, 33521, 32128, 30360, 29274, 30325, 32522, 33668, 33469, 32698], [32162, 31664, 31468, 32720, 35275, 37311, 37357, 35789, 33831, 32004, 30321, 29285, 29622, 31030, 32103, 31996, 31562, 31999, 32828, 32878, 33036, 34810, 36633, 36471, 35983, 36239, 34215, 29628, 27417, 28675, 29261, 28957, 30882, 33779, 34461, 33743, 33913, 34967, 36009, 36535, 35935, 34287, 32456, 30387, 28258, 28197, 30689, 32502, 32290, 33238, 36253, 36962, 33296, 29257, 28470, 30513, 33970, 37191, 37658, 35004, 32345, 32280, 33396, 32638, 30259, 29083, 29436, 29284, 28637, 29986, 34403, 39140, 40856, 39890, 38043, 35190, 31277, 27665, 25766, 26459, 28923, 30897, 31917, 33096, 34040, 33919, 33943, 35507, 37462, 37729, 36219, 34155, 32075, 29954, 28225, 27905, 29316, 31288, 32761, 33667], [31463, 32535, 33428, 33340, 32276, 31019, 30602, 31227, 32278, 33492, 34825, 35417, 34570, 33326, 32906, 32804, 32495, 32541, 32834, 32713, 32234, 31409, 30323, 29901, 30696, 32447, 34694, 36275, 36094, 34758, 33504, 32627, 32038, 31870, 32213, 32749, 32689, 31664, 30534, 30428, 31281, 32266, 33338, 34952, 36244, 35568, 33362, 32015, 32276, 32626, 32455, 32521, 32661, 32245, 31601, 31083, 30738, 31154, 32487, 33953, 35163, 35605, 34454, 32777, 32289, 32534, 32804, 33339, 33420, 32598, 31830, 31149, 30166, 30012, 31284, 32893, 34277, 35572, 36071, 35095, 33441, 32311, 31832, 31724, 32207, 33104, 33307, 32188, 30666, 30077, 30697, 31995, 33539, 34992, 35719, 35175, 33793, 32689, 32269, 32074], [32816, 34468, 31918, 26144, 21567, 22133, 27976, 35112, 40736, 45216, 46721, 40957, 30910, 26505, 29247, 31588, 31927, 33559, 34581, 31244, 24741, 20587, 23063, 30233, 37120, 42318, 46418, 46058, 38149, 29110, 27024, 28849, 29482, 31368, 35039, 35617, 30989, 24244, 21161, 24903, 31794, 37313, 42182, 46555, 44892, 35244, 26660, 26239, 29424, 32084, 35441, 37035, 33557, 27148, 21897, 21553, 27053, 33816, 38384, 42884, 46572, 42874, 32581, 26595, 28220, 30488, 32007, 35344, 36764, 32336, 24786, 20002, 21875, 28835, 36085, 41921, 46874, 47288, 39082, 28407, 25152, 27698, 29612, 32072, 36330, 37759, 33138, 24871, 19630, 22357, 29883, 36396, 41699, 46441, 45524, 36512, 28107, 27716, 30558, 31881], [32768, 32768, 32768, 32768, 32768, 32767, 32767, 32767, 32767, 32767, 32767, 32767, 32767, 32768, 32768, 32768, 32768, 32768, 32768, 32768, 32768, 32767, 32767, 32767, 32767, 32767, 32767, 32767, 32767, 32768, 32768, 32768, 32768, 32768, 32768, 32767, 32767, 32767, 32767, 32767, 32767, 32767, 32767, 32767, 32768, 32768, 32768, 32768, 32768, 32767, 32767, 32767, 32767, 32767, 32767, 32767, 32767, 32767, 32767, 32767, 32767, 32768, 32768, 32767, 32767, 32767, 32767, 32767, 32767, 32768, 32767, 32767, 32767, 32767, 32767, 32767, 32767, 32767, 32767, 32767, 32768, 32768, 32768, 32768, 32767, 32767, 32767, 32767, 32767, 32767, 32767, 32767, 32767, 32767, 32767, 32767, 32768, 32768, 32767, 32767]], "framecount": 2.0, "time": 1489540166417}
{"dataframe": [[31372, 30544, 31865, 33047, 32770, 33025, 34139, 33968, 32588, 31890, 31964, 32026, 32266, 32638, 32775, 33040, 33456, 33360, 32958, 32949, 33141, 33052, 32705, 32321, 32211, 32498, 32639, 32352, 32375, 32997, 33349, 33055, 32699, 32563, 32587, 32889, 33423, 33900, 33841, 32783, 31272, 30604, 31300, 32879, 34352, 34726, 34170, 33648, 32990, 31440, 29777, 29748, 31491, 33154, 33758, 34393, 35249, 34974, 33882, 33249, 32475, 31172, 30657, 31038, 31287, 31755, 32864, 33721, 33884, 33888, 34144, 34671, 34717, 33264, 31150, 30328, 30663, 30924, 31757, 33633, 34659, 33915, 33083, 33014, 32891, 32760, 33384, 34308, 34044, 32098, 30143, 30090, 31454, 32612, 33291, 33835, 34023, 33701, 33071, 32559], [33844, 32898, 30770, 30224, 32923, 36495, 38393, 38967, 38359, 35497, 30996, 27238, 26312, 28375, 31000, 31951, 31828, 31720, 31237, 30637, 31707, 35156, 39024, 40795, 39784, 36729, 32689, 28856, 26628, 27068, 29279, 31038, 31969, 32850, 32774, 31154, 30176, 31924, 35564, 38933, 40557, 39792, 36895, 32682, 28173, 25399, 26052, 28815, 31195, 32705, 33524, 32795, 30628, 29591, 32094, 37178, 41602, 42892, 40208, 34507, 28507, 25095, 25658, 28860, 31258, 31491, 31563, 32310, 32319, 31668, 32195, 34634, 37642, 39341, 39210, 37515, 33902, 29050, 25838, 26191, 28717, 31122, 32663, 33297, 32891, 31910, 31433, 32563, 35408, 38361, 39713, 38945, 36038, 31736, 27744, 25689, 26510, 29482, 32338, 33800], [32412, 33099, 33647, 32785, 29544, 25325, 23518, 25310, 28962, 33346, 38041, 40900, 40309, 38486, 37602, 35815, 32171, 30077, 31443, 33015, 31103, 26527, 23537, 24419, 27484, 31291, 36600, 42434, 44498, 40525, 34473, 31295, 30614, 30238, 30876, 33192, 35183, 34392, 30156, 24438, 21279, 23622, 30397, 37920, 43109, 44290, 41665, 37582, 33662, 29858, 27861, 29766, 32920, 32649, 29177, 26498, 26380, 27795, 30186, 33928, 38747, 42275, 41051, 35651, 31498, 31256, 32122, 32125, 32567, 33794, 33409, 30312, 27502, 27105, 27118, 27765, 32546, 39276, 41024, 37312, 34031, 33467, 33387, 33477, 34926, 36406, 35701, 32338, 27385, 23483, 22980, 25220, 28825, 34154, 39816, 41470, 38724, 37214, 38417, 36683], [31664, 31083, 31465, 32373, 34039, 36494, 37605, 35925, 33109, 31073, 30206, 30715, 31888, 32009, 31470, 31748, 31980, 31457, 31540, 32364, 33303, 35121, 37067, 36932, 35012, 32910, 31278, 31174, 32980, 33791, 30628, 26185, 25903, 29576, 32853, 34775, 36972, 39274, 40034, 38136, 34343, 30885, 28815, 27511, 27331, 29349, 32054, 33002, 33340, 34662, 34909, 33501, 33095, 33498, 33217, 33971, 35806, 35430, 32905, 30805, 28946, 27771, 29877, 33790, 35268, 34434, 33710, 32965, 31568, 30675, 31940, 35145, 37188, 35961, 33570, 32090, 30679, 29316, 29686, 31605, 33125, 33506, 33274, 32975, 33163, 33484, 32698, 31776, 33162, 35635, 35979, 34590, 33024, 30561, 28110, 28781, 31973, 33938, 34288, 34908], [33785, 33200, 33000, 33606, 34250, 34603, 35243, 36143, 35911, 33749, 30705, 28213, 27411, 28961, 31813, 33853, 34147, 33276, 32173, 31672, 32737, 35618, 38443, 38485, 35326, 31248, 28394, 27305, 28305, 31177, 33545, 33759, 33528, 34145, 34269, 33104, 31726, 31679, 33546, 35656, 35619, 33593, 31507, 30243, 30019, 31214, 33221, 35061, 36418, 36080, 32811, 28423, 25924, 26375, 29734, 35060, 39440, 40277, 38187, 35247, 32200, 29699, 29277, 30638, 31586, 31733, 32039, 31788, 30387, 29645, 31269, 34434, 37148, 38316, 37822, 35844, 32905, 29965, 28255, 28730, 30745, 32357, 32834, 32960, 33026, 32573, 31808, 32177, 34445, 36736, 36993, 35587, 33350, 30366, 27931, 28302, 31412, 34455, 35505, 34781], [31910, 32283, 33353, 33752, 32252, 30423, 30429, 31461, 32004, 32726, 34144, 35097, 34996, 34378, 33521, 32691, 32362, 32439, 32670, 33033, 32785, 31266, 29708, 29723, 31103, 32838, 34337, 35313, 35689, 35152, 33653, 32473, 32452, 32490, 32089, 32347, 32972, 32288, 30710, 30199, 30905, 31892, 33278, 35036, 36035, 35461, 33792, 32304, 31713, 31565, 31537, 32246, 33810, 34644, 33182, 30626, 29670, 30587, 31841, 33279, 35018, 35645, 34498, 33096, 32763, 33011, 32929, 32641, 32718, 32924, 32386, 31145, 30432, 30746, 31351, 32125, 33639, 35415, 36108, 35203, 33429, 31926, 31541, 32162, 32706, 32804, 33170, 33230, 31706, 29862, 29830, 31192, 32832, 34788, 36296, 35853, 33806, 32173, 31958, 32340], [34017, 36426, 34758, 28232, 20766, 18490, 23933, 32625, 39790, 45175, 47828, 43750, 34208, 28020, 28528, 29981, 30594, 33341, 35874, 33478, 26662, 20550, 20385, 26375, 33999, 40721, 46718, 48576, 41677, 30836, 26375, 28735, 31124, 32506, 34482, 34604, 30471, 23830, 19971, 22828, 30070, 37120, 42906, 46933, 45163, 35854, 27332, 28410, 34261, 36165, 35084, 33517, 29430, 23134, 18428, 18749, 25312, 35492, 44198, 48725, 49148, 43762, 32794, 24590, 24893, 28369, 30965, 34453, 36599, 33284, 26084, 20566, 21722, 29251, 37127, 41720, 44986, 46083, 39900, 29338, 25102, 28483, 31512, 32687, 34848, 35478, 31327, 24656, 21039, 23773, 30603, 37211, 42302, 45982, 44914, 36372, 27149, 25993, 29875, 32227], [32767, 32767, 32767, 32767, 32768, 32767, 32767, 32767, 32767, 32767, 32767, 32767, 32767, 32767, 32767, 32768, 32768, 32768, 32768, 32767, 32767, 32767, 32767, 32767, 32767, 32767, 32767, 32767, 32767, 32767, 32767, 32768, 32768, 32767, 32767, 32767, 32767, 32767, 32767, 32768, 32767, 32767, 32767, 32767, 32767, 32767, 32767, 32767, 32767, 32767, 32768, 32768, 32768, 32768, 32767, 32767, 32767, 32767, 32767, 32767, 32767, 32767, 32767, 32767, 32767, 32767, 32768, 32768, 32767, 32767, 32767, 32767, 32767, 32767, 32768, 32767, 32767, 32767, 32767, 32767, 32767, 32767, 32767, 32767, 32767, 32768, 32768, 32768, 32768, 32767, 32767, 32767, 32767, 32767, 32767, 32767, 32767, 32767, 32767, 32767]], "framecount": 3.0, "time": 1489540166511}
{"dataframe": [[32666, 33107, 33193, 33180, 33226, 32633, 31928, 32226, 32287, 30907, 30246, 32049, 34404, 35429, 35333, 34252, 32611, 31880, 32193, 32234, 31963, 32241, 32704, 32619, 32286, 32173, 32370, 33058, 33911, 33978, 33156, 32358, 32121, 32318, 32648, 32898, 33271, 33762, 33589, 32722, 32103, 31781, 31599, 32092, 32874, 33114, 33095, 33187, 33242, 33111, 32666, 32239, 32484, 33276, 33799, 33520, 32663, 31954, 31806, 31982, 32144, 32258, 32579, 33200, 33653, 33578, 33241, 32900, 32843, 33540, 34324, 33676, 31818, 30625, 30738, 31294, 32040, 33151, 33966, 33978, 33623, 33217, 32841, 32832, 33044, 32937, 32691, 32671, 32519, 32145, 32177, 32568, 32661, 32616, 32932, 33294, 33092, 32413, 32022, 32421], [34076, 33197, 31511, 30702, 32265, 35575, 38459, 39295, 38055, 35406, 31571, 27580, 26126, 28001, 30550, 32034, 32894, 32910, 31972, 31425, 32201, 34173, 36685, 38317, 38235, 37091, 34761, 30374, 26252, 26515, 30345, 33036, 33219, 32503, 31376, 30205, 29928, 31250, 34921, 39342, 40744, 38871, 35939, 31939, 27755, 26476, 28342, 30765, 32242, 32832, 32911, 32291, 30627, 29360, 31121, 35915, 40293, 41218, 38873, 35191, 31244, 27612, 26211, 28372, 31647, 32769, 32171, 31664, 30844, 29322, 29414, 33141, 38406, 41565, 41670, 39164, 34214, 28581, 25400, 25975, 28693, 31190, 32491, 32864, 32626, 31841, 31079, 31828, 34792, 38260, 39951, 39280, 36614, 32470, 28131, 25781, 26967, 30318, 32703, 33145], [31652, 30115, 32554, 32669, 29029, 25343, 23812, 24965, 28723, 33621, 38356, 41790, 41353, 37148, 33949, 33704, 33508, 32641, 32505, 32148, 30301, 27814, 26201, 26491, 28749, 31978, 35606, 39489, 40942, 36811, 30546, 29054, 32267, 35067, 36244, 37406, 37535, 34200, 27960, 22795, 21867, 24609, 28891, 33922, 39273, 42277, 40360, 36016, 33740, 33521, 33525, 34243, 35296, 34150, 30004, 25234, 22908, 23914, 26856, 30961, 36766, 42216, 42606, 37902, 33981, 33561, 33834, 33586, 34107, 34604, 32775, 28258, 23690, 22495, 25131, 29247, 33713, 38823, 42549, 41680, 37380, 34092, 33059, 32656, 32785, 33777, 33909, 31189, 26380, 22902, 23182, 26704, 32044, 38174, 43379, 44452, 39227, 31194, 27068, 28534], [34700, 32166, 29731, 30325, 33123, 35439, 36031, 35391, 34097, 31665, 28456, 27845, 32368, 38918, 41220, 35578, 25173, 19680, 24491, 32618, 36497, 38805, 41871, 41136, 36002, 31725, 29564, 27718, 27790, 30768, 32989, 32166, 30723, 30658, 31360, 32513, 34455, 36594, 37915, 37954, 36356, 33125, 29967, 28665, 28451, 28589, 30333, 33122, 34368, 33951, 33664, 33708, 33233, 32561, 33046, 34808, 35781, 34715, 33150, 32062, 30384, 28841, 29744, 32288, 33688, 33701, 33467, 32889, 32198, 32373, 33201, 33933, 34124, 33321, 32749, 34306, 36103, 34627, 31182, 29605, 29895, 30153, 30454, 30928, 31198, 31905, 33394, 35542, 38005, 38608, 36576, 35267, 35622, 33295, 26785, 21453, 22627, 28800, 34339, 36802], [32731, 30077, 28698, 29926, 32910, 35733, 37357, 37897, 37161, 34164, 29533, 26724, 28188, 32049, 34596, 34080, 31992, 31271, 32125, 32189, 31675, 32984, 35551, 36806, 36310, 34975, 33006, 30770, 29726, 30807, 32414, 32201, 30594, 29833, 30494, 31562, 32943, 35264, 37474, 37725, 36324, 34817, 33376, 31340, 28950, 27665, 28893, 31907, 34080, 34038, 32901, 31988, 31341, 31360, 33341, 36487, 37762, 36612, 35083, 33245, 30247, 27819, 28035, 30383, 32887, 34062, 33767, 32725, 31835, 31957, 33030, 34081, 34550, 34714, 34978, 34969, 34105, 32693, 31330, 30409, 30192, 30431, 30916, 31645, 31790, 30855, 30773, 33705, 37942, 39524, 37910, 35588, 33224, 30367, 28324, 28247, 29500, 31200, 32620, 32992], [32567, 32978, 33552, 33263, 31828, 30474, 30150, 30568, 31531, 33329, 35400, 36277, 35188, 33052, 31723, 32010, 32912, 33282, 33251, 33321, 33012, 31648, 30036, 29657, 30642, 32132, 33754, 35301, 35851, 34858, 33460, 32890, 32770, 32593, 32690, 32884, 32644, 31987, 30878, 29693, 29818, 31652, 33835, 35362, 36027, 35453, 33947, 32808, 32390, 31868, 31330, 31822, 33253, 33978, 32889, 31012, 30111, 30509, 31661, 33347, 35021, 35728, 35170, 33881, 32690, 32145, 32108, 32149, 32295, 32777, 33189, 32704, 31356, 30403, 30794, 31905, 32916, 34217, 35593, 35475, 33875, 32719, 32629, 32723, 32680, 32684, 32686, 32424, 31596, 30437, 29811, 30333, 31927, 34131, 36094, 36666, 35552, 33865, 32670, 31973], [34137, 36397, 35208, 29408, 22754, 20714, 25172, 32005, 37415, 42258, 46232, 43937, 34037, 26227, 27663, 32216, 34025, 35488, 36572, 33292, 25890, 19517, 19483, 26079, 34342, 40594, 45000, 46349, 41081, 31820, 27697, 30395, 32799, 32934, 33819, 34252, 31118, 24919, 20233, 21749, 28303, 34946, 40377, 45653, 47366, 41061, 31708, 28571, 30447, 30828, 30762, 32806, 33485, 29457, 23169, 20734, 24914, 31835, 37612, 43015, 47701, 46141, 36356, 27333, 26707, 29586, 30692, 32476, 34958, 33901, 28587, 22850, 21799, 26854, 33760, 38981, 43367, 45986, 41905, 32330, 27202, 29565, 31809, 31825, 33758, 35518, 32300, 25657, 21315, 22726, 28110, 33947, 39590, 44909, 46316, 40581, 32072, 28704, 30407, 31727], [32767, 32768, 32768, 32767, 32767, 32767, 32767, 32767, 32767, 32768, 32767, 32767, 32767, 32767, 32767, 32767, 32767, 32767, 32767, 32767, 32768, 32768, 32768, 32768, 32767, 32767, 32767, 32767, 32767, 32767, 32767, 32767, 32767, 32767, 32767, 32767, 32768, 32768, 32767, 32767, 32767, 32767, 32767, 32767, 32768, 32767, 32767, 32767, 32767, 32767, 32767, 32767, 32767, 32767, 32767, 32768, 32768, 32768, 32768, 32767, 32767, 32767, 32767, 32767, 32767, 32767, 32767, 32767, 32767, 32767, 32767, 32768, 32768, 32767, 32767, 32767, 32767, 32767, 32767, 32768, 32767, 32767, 32767, 32767, 32767, 32767, 32767, 32767, 32767, 32767, 32768, 32768, 32768, 32768, 32767, 32767, 32767, 32767, 32767, 32767]], "framecount": 4.0, "time": 1489540166620}
{"dataframe": [[33134, 33480, 33640, 33895, 33610, 32518, 31700, 31740, 31840, 31829, 32343, 32917, 32962, 33176, 33669, 33569, 33038, 32753, 32680, 32864, 33329, 33377, 32709, 32003, 31710, 31726, 31968, 32300, 32692, 33399, 33993, 33700, 33149, 33106, 32884, 32505, 32863, 33134, 32354, 31736, 32135, 32487, 32360, 32577, 33272, 33822, 33791, 33115, 32297, 31824, 31695, 32263, 33469, 33884, 33252, 33088, 33250, 32566, 31885, 31992, 31923, 31851, 32812, 33683, 33245, 32895, 33670, 34255, 33757, 32653, 31385, 30823, 31696, 32834, 33067, 33114, 33430, 33480, 33299, 32893, 32033, 31561, 32110, 32775, 33053, 33488, 33903, 33748, 33399, 33131, 32422, 31381, 30953, 31350, 32184, 33327, 34172, 33943, 33110, 32489], [32700, 31847, 30858, 30753, 32537, 35992, 39077, 39667, 37842, 34870, 31300, 27977, 26819, 28387, 30783, 32491, 33577, 33653, 32099, 30146, 29909, 32098, 35778, 39118, 40297, 38752, 35218, 30813, 27098, 25938, 27848, 31113, 33420, 33953, 33133, 31431, 29873, 30264, 33258, 37243, 39878, 39981, 37859, 34284, 29859, 26195, 25755, 28527, 31638, 33271, 33574, 32727, 31356, 30928, 32257, 35048, 38176, 39751, 38627, 35585, 31729, 27740, 25622, 27221, 30665, 32894, 33832, 34024, 32723, 30755, 30378, 32291, 35563, 38571, 39527, 38058, 35195, 31546, 27947, 26578, 28225, 30619, 31789, 32102, 32191, 31939, 31484, 31691, 33722, 37506, 40779, 41105, 38251, 33543, 28206, 24034, 23738, 27455, 31668, 34166], [32114, 35416, 37808, 37791, 34057, 28161, 23753, 23042, 25543, 29848, 34976, 39466, 40636, 37867, 34755, 33961, 34135, 34372, 35317, 35914, 34114, 29588, 24370, 21693, 23140, 27387, 32666, 38092, 41713, 41333, 38228, 35548, 33955, 33181, 34078, 35524, 34223, 29272, 23580, 20957, 22897, 27869, 33506, 38551, 42281, 43143, 40012, 34978, 31421, 29785, 29429, 31219, 34369, 35600, 33239, 28903, 25559, 25059, 27239, 31155, 35999, 40040, 40566, 37237, 33511, 32132, 32482, 33679, 35539, 36542, 34757, 30217, 25129, 22344, 23266, 27109, 32419, 38097, 42112, 41898, 38127, 34425, 32379, 31607, 32564, 34470, 34975, 33850, 31816, 27840, 22448, 19716, 22733, 30592, 39779, 45452, 44588, 40009, 36575, 34705], [37638, 37646, 36476, 34916, 34097, 33621, 32624, 31568, 31171, 30861, 30006, 29522, 30861, 33595, 35209, 34444, 33007, 32328, 31825, 31528, 32509, 34459, 35921, 36035, 34731, 32723, 31083, 30237, 30369, 31159, 31120, 30538, 31830, 34033, 34044, 33216, 34317, 36046, 36307, 34985, 32672, 30874, 30681, 30799, 30079, 29675, 30986, 33809, 36245, 36051, 33463, 31140, 30483, 30890, 32240, 34637, 36566, 36407, 34695, 32777, 30940, 29477, 29448, 30808, 32041, 32583, 33124, 33545, 33161, 32755, 33627, 34964, 35111, 34247, 33276, 32375, 31753, 31503, 31403, 31757, 32425, 32192, 31181, 31201, 33084, 35741, 36183, 32137, 27716, 29611, 35609, 37746, 35763, 34927, 34896, 32670, 29979, 29157, 29220, 29447], [32595, 32499, 32967, 33487, 34111, 35172, 35921, 35446, 34254, 32994, 31311, 29632, 29735, 31783, 33112, 32276, 31278, 31520, 31839, 31802, 32562, 34476, 36451, 37103, 36068, 34438, 33166, 31647, 29583, 28664, 29678, 31056, 32220, 33555, 33729, 32026, 30738, 32054, 35029, 37208, 37789, 37222, 35130, 31457, 27884, 26619, 28767, 32461, 34073, 33349, 32847, 32653, 31655, 31192, 32760, 35305, 36905, 36896, 35766, 34090, 31835, 29258, 28191, 29771, 32003, 32961, 33248, 32978, 31482, 30244, 31234, 33939, 36555, 37814, 37423, 35896, 33668, 31142, 29291, 28708, 28975, 29761, 31232, 32844, 33430, 33073, 33025, 33760, 34817, 35745, 36134, 35636, 34427, 32915, 31082, 29353, 29123, 30466, 31544, 31759], [31606, 31721, 32249, 32583, 32074, 31061, 30644, 31199, 32300, 33641, 34937, 35493, 34684, 33164, 32474, 32726, 32749, 32532, 32760, 33006, 32620, 31806, 30938, 30346, 30663, 32006, 33569, 34802, 35524, 35267, 34113, 32799, 31790, 31698, 32818, 33788, 33328, 32135, 31105, 30307, 30173, 31124, 32643, 34193, 35614, 35975, 34456, 32448, 31872, 32360, 32720, 33031, 33502, 33542, 32596, 30867, 29516, 29651, 31006, 32816, 34921, 36614, 36448, 34478, 32581, 31826, 31651, 31673, 32176, 32973, 33210, 32400, 31215, 30830, 31517, 32525, 33247, 33885, 34642, 34815, 33859, 32654, 32305, 32652, 32892, 32776, 32773, 32920, 32288, 30859, 30204, 30992, 32213, 33285, 34500, 35343, 34819, 33494, 32741, 32614], [32149, 33146, 32688, 28842, 23120, 20249, 23971, 31951, 39175, 44198, 47234, 45192, 36071, 27138, 26515, 30129, 31371, 32434, 34880, 34267, 28582, 22182, 21175, 26468, 33375, 38902, 43734, 46621, 43127, 33751, 27312, 28227, 30444, 30975, 33141, 35331, 32927, 26845, 21964, 22416, 28271, 35196, 40142, 44194, 46155, 40864, 30541, 26022, 29368, 31889, 31774, 33886, 36067, 32370, 24450, 20173, 23254, 29830, 35757, 41378, 46745, 47025, 38761, 28789, 26119, 28538, 30326, 32629, 35642, 35036, 29700, 23492, 21449, 25266, 31476, 36846, 42077, 46548, 44893, 35923, 28597, 28598, 30344, 30684, 32687, 34689, 32600, 27332, 22636, 22377, 27660, 34547, 39489, 43362, 45469, 41039, 31565, 26937, 29734, 32522], [32767, 32767, 32767, 32767, 32767, 32767, 32768, 32768, 32767, 32767, 32767, 32767, 32767, 32767, 32768, 32767, 32767, 32767, 32767, 32767, 32767, 32767, 32767, 32767, 32767, 32768, 32768, 32768, 32768, 32767, 32767, 32767, 32767, 32767, 32767, 32767, 32767, 32767, 32767, 32767, 32767, 32768, 32768, 34795, 45476, 57973, 34483, 0, 0, 21226, 65535, 65535, 65535, 45043, 27971, 2430, 0, 0, 7437, 21872, 52040, 65535, 65535, 0, 0, 0, 48262, 65535, 65535, 65535, 44338, 0, 0, 0, 0, 8990, 7678, 10335, 55590, 64827, 2933, 0, 32091, 65535, 65535, 65535, 65535, 0, 0, 0, 0, 0, 0, 0, 61503, 65535, 65535, 65032, 40516, 65535]], "framecount": 5.0, "time": 1489540166729}
{"dataframe": [[32901, 32753, 32569, 32690, 33275, 33529, 33036, 32846, 33311, 33011, 31336, 29928, 30429, 32275, 33741, 34299, 34599, 34728, 34254, 33518, 33017, 32392, 31479, 30844, 30860, 31680, 33009, 33609, 33002, 32492, 32880, 33260, 32915, 32674, 33369, 34108, 33837, 33304, 33311, 32996, 31792, 30712, 30613, 31335, 32389, 33311, 33904, 34036, 33528, 32999, 33155, 33254, 32809, 32868, 33460, 33225, 32177, 31394, 31127, 31355, 32178, 33038, 33354, 33501, 33968, 34507, 34481, 33474, 31958, 31112, 31274, 31718, 32098, 32515, 32783, 32990, 33452, 33714, 33395, 33191, 33296, 32886, 32121, 31947, 32234, 32507, 33028, 33655, 33559, 32725, 32104, 32128, 32356, 32541, 32796, 32920, 32786, 32790, 32957, 32770], [35057, 34628, 32454, 30772, 31039, 33719, 37753, 39935, 38324, 34681, 31480, 29166, 27670, 28092, 30602, 33020, 33876, 33810, 32960, 30874, 29134, 30415, 34476, 38046, 39101, 37997, 35361, 32231, 30105, 29116, 28619, 28943, 30503, 32483, 33419, 32687, 31331, 31051, 32743, 36023, 39053, 39810, 38111, 34810, 30367, 26311, 25460, 28282, 31686, 33149, 33298, 33364, 32948, 31629, 30920, 32723, 36333, 38854, 38540, 36230, 33428, 30669, 28660, 28722, 30341, 31226, 30850, 30692, 31468, 32364, 32445, 32652, 34807, 37776, 38743, 37733, 36029, 32977, 28799, 26611, 28050, 30802, 32560, 33282, 33091, 31912, 30380, 29480, 30808, 35191, 39996, 41596, 39572, 35535, 30790, 26939, 25754, 27340, 30119, 32542], [33212, 33079, 34322, 35760, 33805, 28799, 25171, 24241, 23779, 24809, 30327, 38543, 43952, 43664, 40026, 36961, 35046, 32888, 31119, 30853, 30893, 29291, 26063, 23695, 24792, 28997, 33795, 38142, 41836, 41967, 36574, 30748, 30419, 33498, 35424, 36304, 36764, 35140, 31011, 25826, 21191, 19265, 22127, 29498, 38574, 45209, 46295, 43377, 39625, 34368, 28476, 27298, 30796, 33008, 32022, 29230, 25425, 23524, 26115, 31018, 35670, 40077, 42373, 39872, 35028, 32412, 32708, 34302, 34982, 32982, 30596, 30256, 28937, 25229, 23925, 27204, 31756, 36062, 40192, 41281, 38157, 34832, 33766, 33315, 33167, 34308, 35457, 34433, 30122, 23630, 19503, 21547, 27954, 34866, 40938, 44709, 43391, 37909, 33151, 31261], [32510, 33032, 32810, 31504, 31747, 34018, 35322, 35938, 37889, 37961, 33640, 29072, 27302, 27019, 28185, 30934, 33132, 34258, 35261, 34838, 32082, 30564, 34066, 39085, 39124, 35440, 33060, 31036, 27637, 26139, 28211, 31217, 33424, 34390, 33378, 31766, 32301, 34692, 36309, 36346, 35839, 35245, 34495, 33663, 31847, 27941, 24102, 24612, 29953, 35898, 38649, 37754, 34860, 32122, 31452, 33276, 35702, 36370, 34703, 31607, 28806, 27926, 28714, 30540, 33915, 37174, 36951, 33719, 30973, 30222, 30767, 31735, 33044, 35195, 36993, 35962, 32930, 31213, 31303, 31718, 31965, 31366, 29914, 29841, 31684, 32964, 33320, 34817, 36854, 36866, 35288, 34604, 34659, 33123, 29427, 25952, 25841, 29474, 33717, 35685], [33236, 33076, 32190, 31493, 32415, 34932, 37588, 38742, 37320, 33749, 30126, 28233, 28184, 29235, 30610, 32076, 33950, 35609, 35303, 32451, 29045, 28750, 33002, 37562, 38046, 36590, 36014, 34328, 30978, 29002, 28786, 28594, 29138, 31076, 32500, 32640, 33231, 34919, 36378, 36741, 36194, 35085, 33807, 32528, 30841, 29060, 28822, 30468, 32108, 32604, 32407, 31966, 31996, 33092, 34332, 35088, 36150, 36956, 35858, 33412, 31206, 29380, 28417, 29612, 32002, 33340, 33509, 33018, 31771, 31200, 32282, 33262, 33811, 35703, 37495, 36428, 33957, 32266, 30598, 29182, 29543, 30656, 31206, 32190, 33454, 33436, 32895, 32963, 32498, 31909, 33777, 37317, 38737, 36763, 32952, 29296, 27796, 29023, 30890, 31405], [31788, 32044, 32320, 32582, 32473, 31637, 30902, 31098, 31796, 32678, 33822, 34758, 35043, 34634, 33715, 32870, 32259, 31652, 31776, 33045, 33911, 33022, 31236, 30170, 30358, 31368, 32657, 33922, 34999, 35431, 34703, 33433, 32746, 32579, 32524, 32733, 32902, 32540, 31793, 30871, 30182, 30512, 31867, 33549, 35102, 35733, 34656, 32981, 32539, 33039, 33127, 32880, 32986, 33131, 32602, 31301, 29902, 29525, 30691, 32699, 34621, 35969, 36048, 34506, 32615, 31940, 32289, 32659, 32819, 32933, 33015, 32767, 31720, 30318, 29873, 30903, 32746, 34492, 35405, 35106, 34079, 33329, 33081, 32813, 32532, 32566, 32808, 32947, 32470, 31147, 29922, 29734, 30528, 32418, 35242, 37037, 36219, 34182, 32926, 32377], [28928, 30265, 32039, 30901, 26943, 23604, 24899, 30541, 36047, 39898, 43791, 45357, 39944, 30988, 27394, 29532, 31123, 31622, 33432, 34442, 31595, 25664, 21342, 23095, 29712, 36412, 41342, 45182, 45459, 38735, 29786, 27140, 30019, 32761, 34685, 35489, 32363, 25592, 19913, 20378, 26883, 34395, 40065, 44814, 47596, 43900, 33547, 25477, 25877, 29394, 31486, 34510, 37218, 34877, 28089, 22081, 21220, 25727, 32238, 38321, 44161, 47740, 43623, 33042, 26557, 28112, 30741, 31963, 34582, 35863, 31796, 24859, 20679, 22294, 28425, 35535, 41562, 46225, 46572, 38921, 29038, 26853, 29974, 30826, 31637, 35139, 36188, 31574, 24900, 21613, 23914, 29228, 34687, 40580, 45966, 45366, 36835, 28907, 28761, 31701], [31054, 18343, 48984, 65535, 65535, 0, 0, 0, 0, 0, 44395, 65535, 65535, 65535, 65535, 65535, 48578, 21533, 26118, 65535, 65535, 59040, 0, 0, 0, 0, 0, 65535, 65535, 65535, 65535, 65535, 65535, 45513, 13207, 23385, 65535, 65535, 17243, 0, 0, 0, 0, 0, 65535, 65535, 65535, 65535, 65535, 53305, 29643, 21261, 51690, 65535, 65535, 0, 0, 0, 0, 0, 9058, 65535, 65535, 65535, 65535, 65535, 58728, 29150, 22448, 58006, 65535, 51270, 0, 0, 0, 0, 0, 65535, 65535, 65535, 65535, 65535, 65535, 38429, 14814, 24582, 65535, 65535, 33708, 0, 0, 0, 0, 0, 65535, 65535, 65535, 65535, 65535, 59377]], "framecount": 6.0, "time": 1489540166823}
{"dataframe": [[32901, 32753, 32569, 32690, 33275, 33529, 33036, 32846, 33311, 33011, 31336, 29928, 30429, 32275, 33741, 34299, 34599, 34728, 34254, 33518, 33017, 32392, 31479, 30844, 30860, 31680, 33009, 33609, 33002, 32492, 32880, 33260, 32915, 32674, 33369, 34108, 33837, 33304, 33311, 32996, 31792, 30712, 30613, 31335, 32389, 33311, 33904, 34036, 33528, 32999, 33155, 33254, 32809, 32868, 33460, 33225, 32177, 31394, 31127, 31355, 32178, 33038, 33354, 33501, 33968, 34507, 34481, 33474, 31958, 31112, 31274, 31718, 32098, 32515, 32783, 32990, 33452, 33714, 33395, 33191, 33296, 32886, 32121, 31947, 32234, 32507, 33028, 33655, 33559, 32725, 32104, 32128, 32356, 32541, 32796, 32920, 32786, 32790, 32957, 32770], [35057, 34628, 32454, 30772, 31039, 33719, 37753, 39935, 38324, 34681, 31480, 29166, 27670, 28092, 30602, 33020, 33876, 33810, 32960, 30874, 29134, 30415, 34476, 38046, 39101, 37997, 35361, 32231, 30105, 29116, 28619, 28943, 30503, 32483, 33419, 32687, 31331, 31051, 32743, 36023, 39053, 39810, 38111, 34810, 30367, 26311, 25460, 28282, 31686, 33149, 33298, 33364, 32948, 31629, 30920, 32723, 36333, 38854, 38540, 36230, 33428, 30669, 28660, 28722, 30341, 31226, 30850, 30692, 31468, 32364, 32445, 32652, 34807, 37776, 38743, 37733, 36029, 32977, 28799, 26611, 28050, 30802, 32560, 33282, 33091, 31912, 30380, 29480, 30808, 35191, 39996, 41596, 39572, 35535, 30790, 26939, 25754, 27340, 30119, 32542], [33212, 33079, 34322, 35760, 33805, 28799, 25171, 24241, 23779, 24809, 30327, 38543, 43952, 43664, 40026, 36961, 35046, 32888, 31119, 30853, 30893, 29291, 26063, 23695, 24792, 28997, 33795, 38142, 41836, 41967, 36574, 30748, 30419, 33498, 35424, 36304, 36764, 35140, 31011, 25826, 21191, 19265, 22127, 29498, 38574, 45209, 46295, 43377, 39625, 34368, 28476, 27298, 30796, 33008, 32022, 29230, 25425, 23524, 26115, 31018, 35670, 40077, 42373, 39872, 35028, 32412, 32708, 34302, 34982, 32982, 30596, 30256, 28937, 25229, 23925, 27204, 31756, 36062, 40192, 41281, 38157, 34832, 33766, 33315, 33167, 34308, 35457, 34433, 30122, 23630, 19503, 21547, 27954, 34866, 40938, 44709, 43391, 37909, 33151, 31261], [32510, 33032, 32810, 31504, 31747, 34018, 35322, 35938, 37889, 37961, 33640, 29072, 27302, 27019, 28185, 30934, 33132, 34258, 35261, 34838, 32082, 30564, 34066, 39085, 39124, 35440, 33060, 31036, 27637, 26139, 28211, 31217, 33424, 34390, 33378, 31766, 32301, 34692, 36309, 36346, 35839, 35245, 34495, 33663, 31847, 27941, 24102, 24612, 29953, 35898, 38649, 37754, 34860, 32122, 31452, 33276, 35702, 36370, 34703, 31607, 28806, 27926, 28714, 30540, 33915, 37174, 36951, 33719, 30973, 30222, 30767, 31735, 33044, 35195, 36993, 35962, 32930, 31213, 31303, 31718, 31965, 31366, 29914, 29841, 31684, 32964, 33320, 34817, 36854, 36866, 35288, 34604, 34659, 33123, 29427, 25952, 25841, 29474, 33717, 35685], [33236, 33076, 32190, 31493, 32415, 34932, 37588, 38742, 37320, 33749, 30126, 28233, 28184, 29235, 30610, 32076, 33950, 35609, 35303, 32451, 29045, 28750, 33002, 37562, 38046, 36590, 36014, 34328, 30978, 29002, 28786, 28594, 29138, 31076, 32500, 32640, 33231, 34919, 36378, 36741, 36194, 35085, 33807, 32528, 30841, 29060, 28822, 30468, 32108, 32604, 32407, 31966, 31996, 33092, 34332, 35088, 36150, 36956, 35858, 33412, 31206, 29380, 28417, 29612, 32002, 33340, 33509, 33018, 31771, 31200, 32282, 33262, 33811, 35703, 37495, 36428, 33957, 32266, 30598, 29182, 29543, 30656, 31206, 32190, 33454, 33436, 32895, 32963, 32498, 31909, 33777, 37317, 38737, 36763, 32952, 29296, 27796, 29023, 30890, 31405], [31788, 32044, 32320, 32582, 32473, 31637, 30902, 31098, 31796, 32678, 33822, 34758, 35043, 34634, 33715, 32870, 32259, 31652, 31776, 33045, 33911, 33022, 31236, 30170, 30358, 31368, 32657, 33922, 34999, 35431, 34703, 33433, 32746, 32579, 32524, 32733, 32902, 32540, 31793, 30871, 30182, 30512, 31867, 33549, 35102, 35733, 34656, 32981, 32539, 33039, 33127, 32880, 32986, 33131, 32602, 31301, 29902, 29525, 30691, 32699, 34621, 35969, 36048, 34506, 32615, 31940, 32289, 32659, 32819, 32933, 33015, 32767, 31720, 30318, 29873, 30903, 32746, 34492, 35405, 35106, 34079, 33329, 33081, 32813, 32532, 32566, 32808, 32947, 32470, 31147, 29922, 29734, 30528, 32418, 35242, 37037, 36219, 34182, 32926, 32377], [28928, 30265, 32039, 30901, 26943, 23604, 24899, 30541, 36047, 39898, 43791, 45357, 39944, 30988, 27394, 29532, 31123, 31622, 33432, 34442, 31595, 25664, 21342, 23095, 29712, 36412, 41342, 45182, 45459, 38735, 29786, 27140, 30019, 32761, 34685, 35489, 32363, 25592, 19913, 20378, 26883, 34395, 40065, 44814, 47596, 43900, 33547, 25477, 25877, 29394, 31486, 34510, 37218, 34877, 28089, 22081, 21220, 25727, 32238, 38321, 44161, 47740, 43623, 33042, 26557, 28112, 30741, 31963, 34582, 35863, 31796, 24859, 20679, 22294, 28425, 35535, 41562, 46225, 46572, 38921, 29038, 26853, 29974, 30826, 31637, 35139, 36188, 31574, 24900, 21613, 23914, 29228, 34687, 40580, 45966, 45366, 36835, 28907, 28761, 31701], [31054, 18343, 48984, 65535, 65535, 0, 0, 0, 0, 0, 44395, 65535, 65535, 65535, 65535, 65535, 48578, 21533, 26118, 65535, 65535, 59040, 0, 0, 0, 0, 0, 65535, 65535, 65535, 65535, 65535, 65535, 45513, 13207, 23385, 65535, 65535, 17243, 0, 0, 0, 0, 0, 65535, 65535, 65535, 65535, 65535, 53305, 29643, 21261, 51690, 65535, 65535, 0, 0, 0, 0, 0, 9058, 65535, 65535, 65535, 65535, 65535, 58728, 29150, 22448, 58006, 65535, 51270, 0, 0, 0, 0, 0, 65535, 65535, 65535, 65535, 65535, 65535, 38429, 14814, 24582, 65535, 65535, 33708, 0, 0, 0, 0, 0, 65535, 65535, 65535, 65535, 65535, 59377]], "framecount": 7.0, "time": 1489540167010}
{"dataframe": [[32403, 32570, 33185, 33717, 34088, 34087, 33342, 32244, 31397, 30888, 30910, 31646, 32473, 32742, 32800, 33343, 34302, 34929, 34788, 34035, 32985, 32155, 31832, 31426, 30771, 30892, 31917, 32652, 32961, 33594, 34150, 33909, 33343, 33046, 32846, 32645, 32670, 33020, 33421, 33132, 32042, 31485, 32216, 32887, 32182, 31097, 31545, 33340, 34600, 34573, 33845, 33088, 32797, 32692, 32169, 31940, 32716, 33285, 32713, 32018, 31916, 31912, 32088, 32913, 33646, 33494, 33168, 33257, 33246, 33076, 33164, 33233, 32888, 32283, 31718, 31563, 31929, 32305, 32548, 33077, 33566, 33505, 33395, 33476, 33212, 32829, 32713, 32306, 31843, 32288, 32957, 32890, 32782, 32890, 32515, 32187, 32657, 33086, 32829, 32528], [33822, 33755, 32609, 31035, 30593, 33091, 37392, 39745, 38834, 36359, 33251, 29614, 26912, 27051, 29783, 32755, 34114, 33564, 31723, 29926, 29535, 31060, 34285, 38026, 40216, 39715, 37169, 33458, 29209, 26400, 27023, 29599, 31238, 32005, 32948, 33072, 31801, 30744, 31731, 35067, 38602, 39266, 37274, 35298, 33357, 30214, 27890, 28501, 30034, 30256, 30238, 31062, 31796, 31932, 32500, 34592, 37728, 39937, 39775, 37437, 33775, 29574, 26162, 25512, 28105, 31448, 33022, 33223, 33260, 32741, 31511, 31374, 33770, 37296, 39384, 39022, 36715, 33209, 29262, 26528, 26901, 29562, 31647, 32412, 32791, 32491, 31425, 31187, 32887, 35847, 38584, 39564, 37958, 34841, 31905, 28986, 26189, 26154, 29664, 33322], [30724, 31127, 32817, 34229, 33230, 29488, 25369, 24312, 27265, 32173, 36585, 39101, 39195, 36621, 32230, 29155, 30106, 33858, 37313, 39267, 39337, 35940, 29271, 23409, 21532, 22832, 26240, 32004, 38396, 41385, 39542, 36370, 35266, 35394, 35178, 35221, 35571, 34356, 30370, 25138, 21831, 22202, 25551, 30673, 36759, 41859, 42953, 39561, 35172, 32944, 32770, 33544, 34561, 34751, 32976, 29005, 24529, 22464, 24004, 28016, 33298, 38963, 42658, 41717, 37645, 34903, 34089, 32692, 31133, 31365, 32324, 31391, 28863, 27614, 27787, 27231, 27826, 32883, 39406, 41488, 38627, 35004, 33424, 33350, 33507, 33835, 34633, 34934, 32539, 27241, 22776, 22498, 25807, 30872, 36690, 41526, 42797, 39819, 35031, 31388], [35345, 33870, 32167, 31664, 33524, 36348, 37856, 37874, 36476, 32522, 26608, 22297, 23387, 29850, 36400, 38276, 37218, 36808, 36007, 32839, 29433, 29191, 31950, 34162, 33898, 33314, 33832, 33271, 31098, 30395, 32061, 33476, 33527, 33333, 32835, 31276, 30053, 31179, 33841, 35742, 36389, 36188, 34672, 32172, 30186, 29124, 28820, 30082, 33199, 36394, 36959, 34061, 30070, 28227, 29903, 33771, 36601, 36775, 35805, 34506, 32198, 30040, 29824, 31164, 32497, 32522, 31437, 31249, 32590, 33324, 32651, 32898, 34787, 35636, 34837, 35005, 35684, 33379, 28992, 27368, 29413, 31927, 33272, 33467, 32662, 32296, 33155, 33589, 33169, 33488, 34314, 34877, 36146, 37248, 35441, 30651, 25547, 23569, 26605, 31949], [31197, 31504, 32138, 32715, 33765, 35811, 37842, 37754, 35405, 33259, 32350, 30840, 28447, 27770, 29438, 31431, 33133, 34495, 34076, 32108, 31318, 33258, 36539, 38138, 36775, 34626, 33122, 30615, 27241, 26403, 29186, 32740, 34846, 35554, 34923, 33216, 31902, 31547, 31514, 32394, 34704, 36543, 36131, 34336, 32394, 30331, 28941, 29630, 32065, 34287, 34417, 32446, 30296, 29417, 30496, 33848, 37568, 39072, 38100, 35200, 31068, 27836, 27354, 29561, 32769, 34327, 33440, 32359, 32351, 32087, 31388, 31954, 33948, 35867, 36890, 36750, 35173, 32471, 29552, 27905, 28916, 31810, 33687, 33152, 32045, 32067, 32393, 32007, 31911, 33554, 36298, 38062, 37625, 35264, 32295, 30012, 28650, 28148, 28879, 30632], [31973, 32122, 32852, 33142, 32336, 31019, 30232, 30469, 31419, 32470, 33648, 35280, 36267, 35059, 32866, 32133, 32526, 32590, 32647, 33083, 33198, 32404, 30764, 29440, 29887, 31664, 33336, 34822, 36144, 36079, 34299, 32401, 31665, 31849, 32364, 32989, 33429, 33249, 32258, 30765, 29756, 30219, 31877, 33549, 34759, 35737, 36058, 34821, 32451, 30775, 30885, 32216, 33615, 34214, 33517, 31750, 30172, 29923, 30850, 32368, 34053, 35135, 35166, 34463, 33314, 32293, 32330, 33059, 33212, 32959, 33054, 32730, 31355, 30110, 29980, 30667, 31949, 33881, 35875, 36564, 35154, 32989, 32136, 32603, 32882, 32481, 32168, 32285, 32205, 31435, 30448, 30275, 31497, 33445, 34895, 35571, 35567, 34471, 32861, 32115], [32730, 33902, 35164, 33017, 27038, 20837, 19732, 25498, 33669, 39936, 44439, 46628, 42763, 33878, 28365, 29325, 30826, 30944, 32879, 34857, 32372, 25793, 20520, 21743, 28568, 35739, 41154, 45917, 47313, 40461, 29688, 25711, 28826, 31290, 32544, 35126, 35688, 31007, 23805, 20031, 22981, 30035, 36900, 42559, 46707, 45631, 37413, 29137, 27794, 29504, 29935, 32120, 35918, 35800, 29932, 22366, 19439, 23711, 31137, 37922, 44389, 48588, 44966, 34575, 27536, 28532, 31230, 31796, 32827, 33993, 31940, 26226, 20868, 21423, 28095, 35294, 40390, 45080, 47213, 41661, 31680, 27129, 29051, 30721, 31245, 33118, 34243, 31580, 25885, 21748, 23522, 29791, 36005, 41041, 45326, 45359, 38141, 29707, 28058, 30568], [32094, 16431, 43921, 65535, 65535, 276, 0, 0, 0, 0, 0, 65535, 65535, 65535, 65535, 65535, 59659, 34579, 25284, 61091, 65535, 65535, 0, 0, 0, 0, 0, 45563, 65535, 65535, 65535, 65535, 65535, 47036, 21502, 23503, 65535, 65535, 41452, 0, 0, 0, 0, 0, 65535, 65535, 65535, 65535, 65535, 65535, 39328, 19602, 37698, 65535, 65535, 11521, 0, 0, 0, 0, 0, 65535, 65535, 65535, 65535, 65535, 57678, 31283, 21165, 55065, 65535, 65535, 0, 0, 0, 0, 0, 28207, 65535, 65535, 65535, 65535, 65535, 51369, 22517, 19277, 59566, 65535, 47711, 0, 0, 0, 0, 0, 65535, 65535, 65535, 65535, 65535, 62917]], "framecount": 8.0, "time": 1489540167026}
{"dataframe": [[32592, 32878, 33326, 33729, 33902, 33901, 33389, 31931, 30483, 30657, 31950, 32449, 32336, 33130, 34277, 34340, 33765, 33401, 32853, 32148, 32283, 33214, 33524, 32593, 31438, 31045, 31418, 32281, 33194, 33602, 33630, 33704, 33671, 33374, 33012, 32563, 32062, 32017, 32661, 33340, 33266, 32612, 32112, 31834, 31595, 31930, 33058, 33910, 33733, 33244, 33027, 32918, 33111, 33427, 33107, 32640, 32739, 32514, 31607, 31084, 31251, 31910, 33241, 34474, 34492, 33705, 33002, 32541, 32511, 32823, 32754, 32452, 32671, 32931, 32528, 31982, 31800, 31933, 32602, 33758, 34457, 33820, 32256, 31331, 31962, 33214, 33875, 34020, 33813, 32824, 31619, 31494, 32094, 32054, 31698, 32183, 33201, 33944, 34249, 33830], [34590, 33978, 32304, 30310, 29698, 31823, 35826, 39243, 40411, 39045, 35394, 30697, 27160, 26328, 27929, 30331, 32202, 33227, 33123, 31817, 30556, 31173, 34210, 38041, 40114, 39388, 36756, 33135, 28964, 25941, 26418, 29659, 32167, 32785, 33106, 33316, 32396, 31064, 31240, 33760, 37274, 39255, 38695, 36587, 33458, 29300, 26237, 27092, 30573, 32636, 32542, 32267, 31752, 30395, 30283, 32952, 36509, 38951, 40028, 39005, 35375, 30861, 27604, 26549, 27771, 30141, 32076, 32985, 32750, 31687, 31172, 32195, 34408, 36986, 38811, 38776, 36886, 33727, 29648, 26428, 26943, 30427, 32760, 32902, 32779, 32447, 31289, 30076, 29844, 32293, 37757, 41771, 40525, 36868, 34136, 30828, 26845, 25852, 28095, 30119], [30250, 31777, 34601, 36219, 35054, 30987, 25809, 23091, 24379, 27911, 32548, 38329, 42781, 41792, 35778, 30664, 29909, 31108, 32717, 35719, 38161, 36646, 31652, 26257, 22933, 23128, 26685, 32518, 39841, 44472, 40134, 30553, 27391, 31846, 35613, 36953, 38712, 38824, 34482, 27629, 22280, 21072, 23757, 28182, 33535, 39449, 42441, 39976, 35950, 34498, 33966, 33161, 34138, 35784, 34420, 30118, 25766, 23151, 23152, 26177, 31360, 37102, 41214, 41296, 38130, 35588, 34880, 34262, 33769, 33965, 33190, 30279, 26559, 24133, 24191, 26604, 30509, 35132, 39698, 42333, 40822, 36292, 32678, 31232, 30750, 31497, 33592, 35471, 35597, 32242, 25892, 22219, 24659, 28800, 31715, 36174, 40748, 40283, 36902, 35958], [35314, 36340, 36659, 36109, 34563, 33494, 33849, 34908, 34813, 32382, 29318, 27796, 27926, 30270, 34467, 36696, 35571, 34050, 32796, 30793, 30071, 32049, 34254, 34455, 33312, 32713, 33477, 33873, 32618, 32419, 34735, 35585, 32876, 29914, 28548, 27837, 28254, 30561, 34026, 37580, 39358, 38006, 35720, 34597, 32624, 29095, 27759, 29788, 31611, 31883, 32252, 32588, 32016, 31199, 31748, 35033, 38748, 38406, 35104, 33124, 31701, 28767, 26956, 29225, 33873, 36840, 36005, 32261, 28361, 27172, 29446, 33538, 37228, 38880, 38226, 36373, 34231, 31946, 29706, 28194, 28266, 29724, 31220, 32337, 33541, 34043, 33175, 32607, 33803, 35545, 36399, 36830, 36769, 34004, 28142, 24281, 27624, 34703, 37003, 33466], [32222, 32896, 33114, 33259, 33235, 34068, 36707, 39000, 38213, 35293, 32250, 28749, 25653, 26301, 30251, 33068, 33668, 33966, 33856, 32971, 32646, 33312, 34275, 35383, 36162, 35629, 33983, 32126, 30174, 28595, 28891, 30938, 32567, 33099, 33455, 33401, 32501, 31947, 32979, 35005, 36165, 35507, 34148, 33495, 32977, 31582, 30760, 31703, 31824, 29531, 28007, 29495, 31896, 33328, 34810, 37225, 38854, 38061, 35880, 33645, 31278, 28815, 27260, 28047, 31004, 33299, 33385, 33293, 34034, 33593, 31723, 31354, 33467, 35520, 36011, 35854, 35294, 33612, 31096, 29073, 28740, 30002, 31589, 32746, 33277, 32748, 31764, 31854, 33256, 35226, 37219, 38167, 36915, 33581, 29224, 25981, 26910, 31836, 35607, 34910], [32071, 31967, 32328, 33222, 33163, 31716, 30497, 30490, 31040, 31909, 33589, 35474, 36082, 34994, 33307, 32312, 32159, 32216, 32413, 32949, 33237, 32585, 31315, 30466, 30678, 31515, 32261, 33208, 34856, 36151, 35611, 33817, 32532, 32091, 31779, 31672, 32225, 32985, 32966, 31961, 30933, 30789, 31370, 32308, 33773, 35451, 35863, 34349, 32776, 32718, 32780, 31910, 31851, 33228, 33609, 31825, 30046, 30063, 31116, 32263, 33798, 35598, 36219, 34782, 32793, 32191, 32398, 32093, 32018, 32942, 33601, 32893, 31524, 30695, 30737, 31261, 32062, 33341, 34922, 35727, 34892, 33399, 32758, 32688, 32507, 32638, 32910, 32639, 32085, 31190, 29845, 29624, 31359, 33523, 35373, 36930, 36384, 33311, 31092, 31477], [31427, 32368, 34854, 34597, 29232, 22410, 20141, 24554, 31680, 37651, 42951, 47137, 45139, 35773, 28109, 28402, 30656, 30725, 32588, 35562, 33800, 27066, 21130, 21145, 26982, 34101, 39514, 44074, 46731, 42368, 32235, 26809, 29264, 31834, 32227, 33940, 34900, 31374, 25032, 20813, 22613, 29367, 36054, 40635, 44630, 45677, 39372, 30500, 28283, 30956, 31643, 31675, 33659, 34149, 30002, 23263, 20090, 24317, 31900, 37732, 42730, 47113, 45102, 35239, 27478, 28551, 31624, 31330, 31882, 34386, 33783, 28142, 21700, 20867, 26946, 34483, 39649, 43647, 45779, 41628, 32489, 27482, 29508, 31881, 32622, 34820, 35862, 31697, 24568, 19843, 20992, 27305, 34875, 41314, 46748, 48174, 40830, 29692, 26144, 29881], [39664, 21825, 38753, 65535, 65535, 29209, 0, 0, 0, 0, 0, 65535, 65535, 65535, 65535, 65535, 65535, 34932, 17602, 47291, 65535, 65535, 0, 0, 0, 0, 0, 18207, 65535, 65535, 65535, 65535, 65535, 43737, 19592, 18888, 61600, 65535, 65118, 0, 0, 0, 0, 0, 56507, 65535, 65535, 65535, 65535, 65535, 45460, 23564, 33767, 65535, 65535, 33400, 0, 0, 0, 0, 0, 65535, 65535, 65535, 65535, 65535, 62704, 32260, 12209, 35473, 65535, 65535, 1318, 0, 0, 0, 0, 0, 65535, 65535, 65535, 65535, 65535, 56598, 30922, 21834, 58313, 65535, 65535, 0, 0, 0, 0, 0, 43915, 65535, 65535, 65535, 65535, 65535]], "framecount": 9.0, "time": 1489540167136}
{"dataframe": [[32810, 32263, 32528, 32813, 32860, 32985, 32885, 32253, 31801, 32134, 32642, 32676, 32717, 33307, 33842, 33466, 32473, 32017, 32515, 33055, 33058, 33138, 33325, 32878, 32253, 32289, 32376, 31944, 31718, 32294, 33228, 33695, 33535, 33338, 33323, 33183, 32945, 32808, 32767, 32716, 32351, 31587, 31158, 31754, 32916, 33796, 34191, 34005, 33138, 32337, 32348, 32507, 32162, 32204, 33071, 33611, 33373, 33083, 32998, 32860, 32226, 30960, 30421, 31818, 33750, 34432, 34265, 33974, 33409, 32868, 32727, 32625, 32513, 32632, 32432, 31590, 31144, 31758, 32590, 33200, 34022, 34467, 33630, 32346, 31982, 32528, 33180, 33422, 33235, 32889, 32535, 32157, 31874, 31830, 31991, 32262, 32724, 33508, 34144, 33829], [31330, 32714, 32950, 31717, 31460, 33311, 36162, 38970, 40341, 38704, 34958, 31283, 28004, 25699, 26533, 29904, 32376, 32968, 33082, 32822, 31735, 31268, 33368, 37221, 39717, 39256, 36831, 33521, 29648, 26606, 26662, 29586, 32274, 33154, 33223, 32668, 31062, 29747, 30731, 34257, 38240, 40122, 39369, 36913, 33158, 28731, 25861, 26524, 29638, 32379, 33629, 33732, 32793, 31370, 30701, 31640, 34210, 37230, 38905, 38746, 37272, 34072, 29256, 25928, 26820, 29772, 31337, 31832, 32414, 32233, 31375, 31517, 33350, 36320, 39241, 40395, 38739, 34772, 29984, 26555, 26531, 29235, 31483, 32089, 32454, 32512, 31253, 29985, 30766, 33743, 37563, 40269, 40335, 37909, 34164, 30053, 26840, 26168, 28144, 30890], [36023, 34667, 34908, 37303, 35773, 27937, 20517, 19180, 22097, 26612, 32618, 38902, 43211, 43948, 40673, 35895, 33001, 32221, 32497, 33201, 32750, 30513, 28053, 26387, 25328, 25041, 26357, 30696, 38212, 44640, 44683, 39731, 35480, 33216, 31350, 30746, 31778, 32296, 30872, 27785, 24713, 24149, 26729, 31169, 36573, 41519, 43061, 40191, 35868, 32712, 30348, 29186, 30936, 34075, 35062, 33046, 29497, 26277, 25155, 26770, 30515, 35429, 39674, 40571, 37721, 34362, 33086, 33134, 33539, 34480, 35155, 33986, 30433, 25830, 22964, 23724, 27445, 32508, 37888, 41780, 41478, 37448, 33897, 32937, 33095, 33518, 34285, 34451, 32757, 28760, 24041, 22088, 24635, 29925, 35730, 40877, 43334, 41137, 36147, 32064], [30445, 30220, 29843, 29779, 33347, 38514, 39812, 37294, 34886, 33104, 30744, 28810, 28479, 29550, 31413, 32965, 33247, 32642, 31962, 31743, 32422, 33720, 35128, 36766, 38282, 38344, 35929, 31292, 26250, 23653, 25138, 29331, 33419, 35931, 36933, 36683, 35249, 33159, 31962, 32919, 34862, 35019, 32550, 30011, 30616, 34350, 36321, 31744, 25063, 25576, 31999, 35280, 34717, 35652, 37265, 36113, 33905, 33205, 33150, 32657, 31843, 30632, 29437, 29593, 31347, 33060, 33463, 33241, 33365, 33540, 33362, 33133, 33194, 33764, 34871, 35699, 34806, 32146, 29916, 29579, 30102, 30647, 31653, 32881, 33564, 33884, 33970, 33128, 32306, 33836, 36520, 36710, 34433, 31820, 29071, 27111, 28241, 31945, 35224, 36358], [32488, 31101, 30179, 30431, 33388, 36407, 36222, 34695, 34641, 35000, 33983, 31920, 30039, 29470, 30435, 31520, 31390, 30940, 31945, 34033, 34931, 33919, 33032, 33958, 35850, 36746, 35444, 32511, 29820, 28568, 28986, 30997, 33219, 33787, 33049, 32477, 32042, 31437, 31719, 33580, 35943, 37102, 36273, 34454, 33202, 32194, 30157, 27999, 27934, 30268, 33301, 34927, 34097, 32391, 32246, 33390, 34116, 34484, 35252, 35876, 35461, 33618, 30718, 28846, 29460, 30549, 30514, 30998, 32544, 33441, 33335, 33123, 33450, 34831, 36761, 37858, 37227, 34420, 30305, 27482, 27336, 28740, 30495, 32340, 33828, 34273, 33397, 31936, 31834, 34161, 37063, 38075, 36968, 34526, 31217, 28241, 27389, 29056, 31511, 32983], [32337, 32539, 32921, 33408, 33369, 32707, 31489, 30283, 30163, 31407, 33116, 34435, 35244, 35230, 33918, 32319, 32131, 33060, 33545, 33384, 33304, 32832, 31068, 29180, 29230, 31007, 32881, 34314, 35450, 35911, 35197, 33710, 32550, 32025, 31684, 31675, 32399, 33362, 33463, 32179, 30602, 30476, 31662, 32604, 33173, 34174, 34998, 34638, 33673, 33114, 32786, 32421, 32564, 33114, 33064, 32288, 31378, 30444, 29918, 30716, 32561, 34273, 35360, 35639, 34956, 33934, 33134, 32396, 31930, 32113, 32470, 32441, 32017, 31351, 30667, 30375, 31085, 32985, 35082, 36084, 35643, 34339, 33194, 32695, 32259, 31639, 31722, 32710, 33150, 32049, 30546, 30206, 30946, 32109, 33922, 35970, 36397, 34755, 33017, 32230], [31972, 32029, 33960, 34909, 30797, 23877, 20437, 23508, 29914, 35991, 41721, 46670, 46360, 38298, 29422, 27571, 29953, 31319, 32675, 34397, 33551, 28852, 22581, 20144, 24505, 32007, 38808, 44860, 48283, 44259, 34094, 27466, 28513, 30698, 30951, 32605, 34536, 32399, 26163, 20680, 21652, 28894, 36404, 41418, 45586, 46797, 40271, 29739, 25459, 28379, 30978, 32179, 35007, 36484, 32389, 24883, 20403, 22648, 29179, 35782, 41352, 45855, 45793, 38124, 29253, 27964, 31132, 31970, 32344, 34202, 33796, 29134, 23090, 20757, 24681, 31751, 37952, 43002, 46470, 44131, 35105, 27861, 28500, 31577, 32385, 33541, 35009, 32900, 26797, 20871, 20319, 26047, 33724, 40138, 45433, 47683, 42595, 32592, 27224, 28996], [45792, 19507, 24704, 65535, 65535, 42768, 0, 0, 0, 0, 0, 65535, 65535, 65535, 65535, 65535, 65535, 37238, 17799, 37023, 65535, 65535, 8771, 0, 0, 0, 0, 0, 65535, 65535, 65535, 65535, 65535, 54332, 27593, 16576, 49186, 65535, 65535, 0, 0, 0, 0, 0, 29262, 65535, 65535, 65535, 65535, 65535, 51388, 24487, 23002, 64100, 65535, 51788, 0, 0, 0, 0, 0, 65535, 65535, 65535, 65535, 65535, 65535, 41244, 18109, 32478, 65535, 65535, 20346, 0, 0, 0, 0, 0, 65535, 65535, 65535, 65535, 65535, 56446, 28528, 16255, 48105, 65535, 65535, 0, 0, 0, 0, 0, 11666, 65535, 65535, 65535, 65535, 65535]], "framecount": 10.0, "time": 1489540167214}
{"dataframe": [[33025, 32986, 33371, 33005, 32361, 32372, 32342, 31643, 31463, 32531, 33285, 32801, 32766, 33718, 33501, 32115, 32219, 33499, 33407, 32531, 32801, 33445, 33273, 32896, 32694, 32171, 31490, 31395, 32079, 33117, 33887, 33690, 32585, 32004, 32698, 33415, 33416, 33451, 33555, 33153, 32469, 31874, 31610, 32045, 32630, 32459, 32205, 32871, 33690, 33591, 32973, 32617, 32640, 33027, 33741, 34128, 33271, 31583, 31010, 32026, 32587, 32010, 32049, 33080, 33664, 33424, 33030, 32746, 32677, 33113, 33809, 33925, 33281, 32600, 32139, 31594, 31183, 31335, 31878, 32632, 33709, 34387, 33627, 32460, 32781, 33827, 33773, 33097, 32869, 32735, 32300, 31680, 31078, 31149, 32143, 33179, 33724, 34075, 34032, 33305], [32670, 33070, 32404, 31201, 30437, 31682, 35400, 39416, 41042, 39509, 35581, 30830, 27302, 26664, 28611, 30427, 30590, 31019, 32720, 33500, 32389, 31566, 33000, 36236, 39093, 39660, 37938, 34949, 31010, 26821, 25002, 27396, 31676, 33907, 33502, 32495, 31655, 30668, 30710, 33357, 37362, 39694, 39365, 37366, 34129, 30033, 27109, 27142, 28960, 30669, 32324, 33542, 32980, 31399, 30521, 30914, 33376, 37721, 40780, 40088, 36920, 33166, 29212, 26357, 26620, 29028, 30965, 32424, 33918, 33663, 31295, 29789, 31379, 35199, 38889, 40410, 39056, 35698, 31769, 28434, 26906, 27800, 29949, 31690, 32609, 32694, 31711, 30590, 31100, 33568, 36710, 39112, 39744, 38135, 34637, 30207, 26764, 26720, 29720, 32104], [29548, 28402, 30302, 34813, 37876, 36373, 31174, 26021, 24107, 25567, 28944, 33493, 37946, 39307, 36794, 34482, 35574, 37596, 36824, 33786, 31685, 30881, 28388, 24156, 22905, 27342, 34020, 37757, 37880, 37080, 35454, 32297, 30810, 33104, 36394, 38212, 38338, 36506, 32687, 27507, 22683, 21123, 23743, 28486, 33911, 39514, 42714, 40957, 36516, 33789, 33299, 33293, 33674, 34494, 34391, 31974, 27376, 23232, 22710, 25792, 30181, 35032, 40055, 42546, 40345, 36346, 34460, 33898, 32782, 32172, 32644, 32499, 30425, 26891, 24152, 24643, 28149, 32668, 37298, 40994, 41150, 37551, 33920, 32572, 32470, 32994, 34289, 35182, 33948, 30021, 25221, 22968, 24589, 28391, 33093, 38391, 41860, 40448, 35928, 33191], [35759, 34681, 33081, 29834, 27085, 29281, 35164, 38354, 37098, 34751, 32332, 29676, 29841, 34130, 37103, 33397, 26590, 24648, 28595, 33345, 36542, 38520, 38386, 36175, 33857, 32077, 30437, 30040, 31558, 32968, 32492, 31317, 31472, 32757, 32850, 31025, 30052, 31773, 34413, 36162, 36617, 35731, 34718, 34528, 33383, 30318, 28317, 29444, 31320, 31721, 31477, 31532, 31979, 33095, 34575, 35933, 37112, 37111, 34980, 32093, 30435, 30080, 29973, 30009, 31145, 32959, 33149, 31431, 30757, 32889, 35893, 36912, 35765, 34608, 34253, 33208, 30922, 29223, 29429, 30496, 31396, 32626, 34199, 34941, 34353, 33065, 31766, 31058, 31597, 33352, 35220, 35995, 35499, 34431, 32882, 30161, 27667, 28599, 32142, 33784], [33832, 34600, 33916, 31754, 30763, 31922, 33802, 35565, 36585, 35904, 34071, 32262, 30524, 29415, 29919, 31248, 32396, 33526, 34083, 33152, 31252, 29989, 31096, 34446, 37186, 37372, 36106, 34743, 32968, 30285, 28244, 29108, 31624, 32246, 30967, 30810, 32392, 33691, 34066, 34717, 35752, 36184, 36203, 35976, 33912, 29957, 27461, 28284, 30241, 31368, 32155, 33099, 33675, 33470, 32931, 33157, 34432, 35462, 35455, 35251, 34806, 32728, 29930, 29384, 31135, 32159, 31164, 29718, 29763, 31906, 34499, 35358, 35070, 35579, 36923, 37356, 35011, 30716, 28073, 28327, 29779, 31685, 33223, 33067, 32443, 32814, 32792, 31710, 31611, 33591, 36162, 37440, 36792, 34719, 32113, 29768, 28503, 29035, 30931, 32616], [31638, 31477, 32473, 33504, 33390, 32571, 31504, 30553, 30617, 31665, 32794, 33965, 35206, 35300, 33916, 32883, 32863, 32507, 32129, 32933, 33622, 32837, 31564, 30570, 29885, 30422, 32361, 34153, 34971, 35339, 35282, 34304, 32625, 31270, 31257, 32393, 33383, 33602, 33243, 32337, 31235, 30537, 30330, 30885, 32624, 34788, 35895, 35454, 34314, 33368, 32668, 32235, 32339, 32732, 32820, 32187, 31028, 30272, 30380, 31039, 32322, 34230, 35739, 35851, 34789, 33636, 33204, 33255, 32939, 31934, 30891, 30701, 31218, 31353, 31040, 31525, 33007, 34344, 35144, 35549, 35015, 33606, 32445, 31866, 31509, 31718, 32704, 33567, 33367, 32160, 30864, 30397, 30845, 31856, 33396, 35176, 36019, 35036, 33203, 32329], [31153, 31675, 33585, 34806, 31128, 23909, 19303, 22022, 29940, 37294, 42647, 47444, 48043, 39648, 28539, 25487, 28602, 30197, 31243, 33838, 34290, 30429, 24813, 22135, 25296, 31905, 37951, 42812, 46177, 44138, 35382, 27496, 26856, 29391, 31025, 33623, 36123, 34531, 28826, 22746, 21152, 25781, 32562, 37918, 43076, 47092, 43954, 34046, 27741, 29022, 30840, 30927, 32846, 34577, 31948, 26059, 21613, 22786, 28985, 35488, 40257, 44549, 45934, 39943, 30758, 27759, 30511, 32157, 32512, 33695, 33273, 29314, 23777, 20926, 23776, 30523, 37457, 43424, 47534, 45813, 36631, 27713, 26935, 30215, 31210, 31954, 34130, 34047, 29513, 23406, 21492, 26104, 32944, 38067, 42514, 46116, 43678, 34277, 27324, 28668], [53291, 26760, 23797, 63910, 65535, 60924, 0, 0, 0, 0, 0, 58483, 65535, 65535, 65535, 65535, 65535, 43707, 19156, 24908, 65535, 65535, 29494, 0, 0, 0, 0, 0, 65535, 65535, 65535, 65535, 65535, 62139, 36216, 19425, 45021, 65535, 65535, 0, 0, 0, 0, 0, 0, 65535, 65535, 65535, 65535, 65535, 56088, 26773, 16839, 51914, 65535, 65270, 0, 0, 0, 0, 0, 46408, 65535, 65535, 65535, 65535, 65535, 43898, 20518, 27364, 65535, 65535, 45892, 0, 0, 0, 0, 0, 65535, 65535, 65535, 65535, 65535, 65535, 38090, 15740, 34392, 65535, 65535, 10564, 0, 0, 0, 0, 0, 65535, 65535, 65535, 65535, 65535]], "framecount": 11.0, "time": 1489540167323}
{"dataframe": [[32548, 32250, 32062, 32140, 33047, 34096, 34205, 33637, 32714, 31135, 29950, 30586, 32119, 33021, 33597, 34270, 34493, 34290, 33970, 33143, 32153, 32125, 32716, 32688, 31918, 31009, 30724, 31632, 32988, 33827, 34443, 34664, 33700, 32468, 32203, 32344, 32447, 32937, 33387, 33162, 32632, 32151, 31688, 31695, 32508, 33488, 33773, 33049, 31899, 31716, 32824, 33712, 33655, 33493, 33439, 33226, 33063, 32592, 31593, 31198, 31751, 32139, 32392, 33157, 33697, 33533, 33388, 33349, 33033, 32760, 32800, 32947, 33009, 32732, 32136, 31842, 32122, 32394, 32346, 32578, 33246, 33387, 32754, 32517, 33254, 34034, 33976, 33693, 34008, 33442, 30541, 28137, 29474, 32501, 33959, 34379, 34886, 34748, 33840, 32975], [32175, 31784, 31684, 31044, 30689, 32116, 35066, 38050, 39694, 39276, 36851, 32981, 28675, 25979, 26733, 29671, 31812, 32661, 33383, 33612, 32428, 30828, 31140, 34088, 37579, 39390, 39193, 37047, 32881, 28125, 25580, 26753, 29855, 31978, 32803, 33411, 33252, 31788, 30845, 32552, 36272, 39182, 39415, 37430, 34413, 30739, 27202, 26285, 28820, 31655, 32522, 32764, 32978, 32070, 30701, 30839, 33245, 36929, 39654, 39717, 37486, 34071, 30060, 26868, 26636, 29093, 31366, 32083, 32353, 32542, 31823, 30817, 31696, 35144, 38836, 39912, 38087, 35323, 32859, 30041, 27223, 26972, 29666, 32225, 32625, 31365, 30083, 30551, 32473, 34226, 36227, 39171, 40874, 39215, 35182, 30497, 26364, 25050, 27481, 30744], [33253, 33888, 34561, 35605, 35818, 33156, 26935, 20591, 19480, 24186, 30996, 37815, 43429, 44353, 39390, 33664, 31682, 31635, 32006, 35038, 38792, 36995, 29818, 23453, 20216, 19750, 23964, 32257, 40141, 45048, 45742, 41224, 35044, 31857, 30843, 30097, 30854, 33049, 33664, 30882, 26510, 24029, 25067, 28640, 33378, 38438, 41895, 41185, 37114, 33767, 32670, 32259, 32508, 33951, 34737, 32834, 28595, 24464, 23203, 25441, 29650, 34672, 39810, 42637, 40678, 35923, 32888, 32305, 32215, 32691, 34121, 34578, 32279, 28165, 24862, 24037, 25623, 29158, 34362, 40375, 44394, 42458, 35336, 30060, 30333, 32513, 34194, 36441, 37256, 32782, 24170, 17493, 18044, 25741, 35410, 42512, 45981, 44907, 39306, 33359], [32920, 32662, 33407, 33564, 33169, 32908, 33518, 36004, 39054, 38574, 32563, 24942, 22324, 26513, 32559, 35441, 35710, 36632, 37211, 33306, 27748, 28957, 36026, 39221, 36314, 33299, 31910, 29750, 27309, 27163, 30837, 35910, 36634, 32954, 31399, 33627, 35246, 34060, 31602, 30742, 32854, 35267, 34977, 33176, 31993, 31069, 30261, 30938, 32875, 34044, 33839, 33109, 32172, 31209, 30932, 31901, 33939, 35839, 36259, 35303, 33890, 32183, 30319, 29579, 30799, 32530, 32919, 32318, 31983, 31839, 31541, 32133, 34352, 36407, 36374, 35280, 34652, 33589, 30783, 27444, 27072, 31047, 34763, 34162, 33611, 36396, 35593, 28244, 24350, 30047, 38483, 42129, 40169, 35252, 30500, 27307, 25824, 27183, 31149, 34325], [33296, 33446, 33206, 32346, 31491, 31798, 33703, 36254, 37680, 37156, 35258, 32549, 29597, 27716, 27603, 28799, 31091, 33883, 35216, 34075, 32274, 32438, 34819, 36658, 35892, 34394, 34078, 32895, 29624, 28092, 30914, 33731, 32393, 30196, 31033, 33029, 33775, 33651, 33149, 33118, 34690, 36476, 36305, 34554, 32371, 30109, 28823, 29595, 31512, 32826, 33097, 32832, 32399, 31978, 31740, 32233, 34021, 36224, 37128, 36375, 34723, 32538, 30082, 28518, 29020, 30857, 32218, 32759, 33130, 33202, 32779, 32368, 32652, 34181, 36265, 36694, 34904, 32855, 31168, 29377, 29216, 31392, 32980, 32610, 32201, 32595, 33102, 33085, 31976, 31456, 34189, 37703, 37542, 35034, 33039, 30765, 28538, 28544, 30250, 31877], [32489, 32443, 32237, 32716, 33325, 32870, 31491, 30354, 30218, 31053, 32478, 34107, 35440, 35637, 34473, 33217, 32801, 32398, 31806, 32334, 33738, 33899, 32293, 30511, 29631, 29749, 31055, 33259, 35278, 36268, 35711, 33862, 32530, 32709, 32888, 32130, 31718, 32447, 33179, 32589, 31017, 30073, 30616, 32064, 33599, 34931, 35725, 35271, 33675, 32401, 32190, 32207, 32217, 32787, 33371, 33023, 31936, 30742, 29995, 30398, 31985, 33880, 35384, 36016, 35224, 33511, 32330, 32062, 32076, 32391, 33144, 33477, 32595, 31071, 30166, 30296, 31060, 32328, 34069, 35618, 36064, 35233, 34027, 33169, 32181, 31057, 31156, 32511, 33019, 31898, 30842, 30853, 31191, 31758, 33367, 35640, 36888, 35943, 33398, 31264], [31702, 31969, 33209, 35120, 32833, 26369, 20850, 20962, 26832, 34535, 41055, 46048, 47472, 41363, 30961, 26351, 28851, 30822, 31382, 34122, 35930, 32153, 24939, 20742, 23016, 29112, 35260, 41175, 46472, 46444, 38113, 28853, 27614, 31014, 32110, 32459, 34050, 33663, 29250, 23073, 20431, 24535, 31972, 38240, 43510, 47445, 44848, 34824, 27126, 27762, 30312, 31046, 33431, 35727, 33207, 27146, 22220, 22073, 27058, 33621, 39045, 43841, 46312, 41748, 32363, 27757, 29776, 31517, 31842, 33852, 35108, 31761, 25009, 20144, 21832, 28984, 36350, 41379, 45063, 45631, 39255, 30492, 28584, 31508, 31818, 31608, 34033, 34114, 28634, 22123, 20430, 24579, 31148, 37231, 42921, 47765, 47067, 37980, 27999, 25725], [58557, 31406, 20453, 53742, 65535, 65535, 0, 0, 0, 0, 0, 28797, 65535, 65535, 65535, 65535, 65535, 55928, 27317, 24525, 65535, 65535, 51862, 0, 0, 0, 0, 0, 65535, 65535, 65535, 65535, 65535, 65535, 43640, 19519, 31987, 65535, 65535, 17641, 0, 0, 0, 0, 0, 65535, 65535, 65535, 65535, 65535, 54695, 27412, 14400, 46431, 65535, 65535, 0, 0, 0, 0, 0, 8735, 65535, 65535, 65535, 65535, 65535, 55459, 28555, 23687, 61800, 65535, 57886, 0, 0, 0, 0, 0, 63291, 65535, 65535, 65535, 65535, 65535, 41223, 18762, 29812, 65535, 65535, 32399, 0, 0, 0, 0, 0, 65535, 65535, 65535, 65535, 65535]], "framecount": 12.0, "time": 1489540167432}
{"dataframe": [[32365, 32078, 32224, 32455, 32563, 32570, 32404, 32321, 32548, 32612, 32319, 32376, 33008, 33504, 33541, 33335, 32980, 32701, 32615, 32477, 32507, 33009, 33374, 33106, 32665, 32372, 32098, 32036, 32309, 32498, 32456, 32599, 33168, 33883, 34143, 33494, 32440, 32248, 32997, 33232, 32532, 32081, 32352, 32672, 32325, 31358, 31254, 32902, 34378, 34182, 33653, 33522, 32910, 32198, 32281, 32587, 32661, 33038, 33433, 32816, 31538, 31193, 32146, 33128, 33512, 33668, 33250, 32143, 31868, 33007, 33845, 33586, 33295, 33203, 32744, 32263, 32050, 31611, 31285, 32187, 33670, 33739, 32732, 32610, 32954, 32675, 32957, 34069, 34255, 33409, 32651, 31950, 31385, 31400, 31571, 31880, 32972, 34048, 33753, 32789], [32357, 33140, 33553, 32605, 30977, 31016, 33716, 37415, 39610, 39375, 37224, 33751, 29723, 26714, 26408, 28678, 31281, 32593, 33004, 32866, 31928, 31097, 32019, 34877, 38004, 39513, 38698, 35966, 32201, 28597, 26739, 27740, 30419, 32032, 31873, 31638, 32105, 32377, 32256, 33240, 36152, 38918, 38924, 36399, 33452, 31126, 29077, 27747, 28523, 30820, 32404, 32897, 33028, 32278, 30729, 30430, 32802, 36535, 38974, 39006, 37565, 35111, 31137, 27246, 26629, 29054, 31364, 32542, 33015, 32130, 30400, 29910, 31532, 34831, 38551, 40418, 39440, 36823, 33328, 29099, 26055, 26352, 28868, 31146, 32925, 34213, 33677, 31492, 30100, 31468, 35151, 38530, 39409, 38157, 35885, 32460, 28424, 26392, 27971, 31014], [30653, 29975, 30021, 31578, 33620, 33296, 29936, 26100, 24756, 26518, 30063, 34408, 39085, 41953, 40301, 35608, 32373, 31716, 31909, 32872, 34717, 35475, 33216, 28405, 24021, 23101, 25869, 30606, 36023, 40558, 41616, 38726, 34948, 32692, 32004, 32770, 33966, 33992, 33299, 31865, 28315, 24872, 25304, 28482, 31483, 34817, 38547, 39374, 36603, 34268, 34226, 34434, 34420, 35315, 36172, 34803, 30367, 24663, 21430, 22578, 26566, 31774, 37707, 41956, 41444, 37817, 35599, 35350, 34801, 33994, 33983, 33846, 31392, 25755, 20175, 19884, 25471, 32630, 38578, 43120, 44416, 40663, 35013, 31835, 30883, 30684, 31844, 33796, 34198, 31927, 28068, 25317, 25680, 28050, 30590, 34082, 38650, 40608, 38690, 37314], [34820, 34508, 34496, 33651, 32221, 31994, 33276, 34715, 35221, 34672, 33433, 31926, 30551, 29926, 30551, 31897, 32903, 33205, 32988, 32473, 31829, 31491, 32824, 36067, 38069, 36547, 33748, 31641, 29364, 27811, 29208, 32001, 33409, 34511, 36429, 36131, 31912, 27993, 28199, 30729, 33354, 36572, 39251, 38661, 35213, 31498, 28800, 27650, 28464, 30670, 32915, 33890, 33468, 32849, 32689, 32674, 33285, 35196, 36974, 36599, 34422, 31892, 29654, 28510, 29090, 30444, 31814, 34083, 36940, 37219, 32725, 26661, 25566, 31396, 38613, 41273, 38984, 34621, 30625, 28494, 28644, 30016, 31585, 33230, 33945, 32695, 30996, 30575, 31234, 33016, 35586, 37119, 37245, 36777, 34986, 31434, 28002, 27029, 28598, 30603], [33256, 34481, 34704, 33220, 31162, 30857, 32817, 35094, 36062, 35852, 34852, 32991, 30827, 29641, 30131, 31534, 32407, 32449, 32461, 32494, 32069, 31817, 32718, 34151, 34887, 35504, 36729, 36685, 33764, 30034, 28168, 28076, 29134, 31588, 33890, 33874, 33025, 33563, 33909, 33163, 33662, 35178, 35091, 34021, 33506, 32246, 30196, 29953, 31309, 32080, 32765, 33287, 31985, 30777, 31656, 32376, 32942, 35857, 38488, 37226, 34377, 32429, 30312, 28581, 29199, 31164, 32576, 33362, 33396, 32400, 31253, 30613, 31065, 33957, 38252, 39901, 37158, 32607, 29353, 28744, 30442, 32312, 32580, 31989, 31515, 30902, 30591, 31181, 32139, 33630, 36131, 38146, 38168, 36653, 34132, 30879, 28377, 27890, 28642, 29694], [30817, 31379, 32115, 33082, 33927, 33747, 32428, 30861, 30106, 30667, 32118, 33607, 34789, 35420, 34901, 33543, 32625, 32417, 32312, 32453, 33057, 33304, 32454, 31052, 30261, 30537, 31518, 32797, 34181, 35327, 35508, 34338, 32746, 31999, 32139, 32642, 33234, 33470, 33141, 32394, 31183, 30116, 30342, 31621, 32806, 33824, 35010, 35604, 34722, 33032, 32119, 32344, 32716, 32820, 33026, 33090, 32374, 31068, 30096, 30212, 31487, 33251, 34697, 35392, 35103, 34061, 33143, 32746, 32473, 32357, 32740, 33209, 32899, 31481, 29798, 29439, 30863, 32833, 34413, 35595, 35915, 34922, 33402, 32297, 31783, 31950, 32677, 33320, 33381, 32588, 31016, 29864, 30330, 31821, 33107, 34163, 35215, 35425, 34323, 33066], [28233, 30230, 33055, 36214, 35007, 28479, 21506, 20250, 25707, 33115, 39351, 44941, 47847, 43225, 32862, 26666, 28273, 30668, 30930, 32920, 35477, 33359, 26609, 21196, 22210, 28345, 34886, 40358, 45407, 46783, 40091, 29951, 26425, 29535, 31869, 32780, 34687, 34754, 30228, 23631, 20506, 23977, 31045, 37052, 41869, 46357, 45806, 36801, 27720, 27253, 30267, 30861, 32523, 35658, 35158, 30122, 23854, 20743, 23885, 31059, 37808, 43342, 47016, 44018, 34113, 27123, 28263, 31040, 32163, 34598, 36389, 33365, 26587, 20572, 20019, 25840, 33765, 40476, 46052, 47817, 41246, 30886, 27241, 29970, 31159, 31391, 34265, 35729, 31474, 24165, 20045, 22786, 29865, 36400, 41452, 45915, 46180, 38420, 28995, 27369], [63087, 34387, 16912, 42195, 65535, 65535, 0, 0, 0, 0, 0, 0, 65535, 65535, 65535, 65535, 65535, 51829, 26372, 24157, 60445, 65535, 65535, 0, 0, 0, 0, 0, 44923, 65535, 65535, 65535, 65535, 65535, 41268, 17522, 27546, 65535, 65535, 47295, 0, 0, 0, 0, 0, 65535, 65535, 65535, 65535, 65535, 65535, 47580, 23507, 37646, 65535, 65535, 0, 0, 0, 0, 0, 0, 65535, 65535, 65535, 65535, 65535, 46718, 20819, 12100, 49018, 65535, 65535, 0, 0, 0, 0, 0, 21730, 65535, 65535, 65535, 65535, 65535, 55510, 29237, 27876, 65535, 65535, 47617, 0, 0, 0, 0, 0, 65535, 65535, 65535, 65535, 65535]], "framecount": 13.0, "time": 1489540167526}
{"dataframe": [[32665, 33230, 33547, 33413, 33088, 32864, 32699, 32236, 31747, 31824, 32158, 32250, 32447, 33122, 33836, 33886, 33294, 32831, 32823, 32798, 32560, 32386, 32436, 32773, 33149, 32903, 32160, 31909, 32133, 32195, 32843, 34376, 34661, 32812, 31353, 31833, 32744, 33047, 33532, 34401, 34289, 32403, 30422, 30421, 31749, 32705, 33273, 33641, 33382, 33090, 33301, 33211, 32757, 32936, 33467, 33340, 32730, 32205, 31867, 31940, 32415, 32636, 32320, 32118, 32592, 33296, 33539, 33423, 33339, 33211, 32928, 32847, 33105, 33145, 32758, 32375, 31996, 31493, 31403, 32046, 32887, 33364, 33489, 33505, 33393, 33128, 33110, 33483, 33629, 33171, 32447, 31877, 31695, 31782, 31625, 31356, 31963, 33451, 34394, 34217], [32422, 32146, 31962, 32039, 31455, 30985, 32633, 36252, 39170, 39703, 38285, 35345, 31062, 27071, 25964, 28151, 30968, 32383, 32979, 33143, 32230, 31029, 31274, 33188, 35869, 38532, 39911, 38672, 35111, 30584, 26685, 25565, 27807, 31045, 33066, 33532, 32623, 31143, 30639, 31830, 34512, 38264, 41236, 40534, 36060, 30824, 27056, 25903, 27922, 30800, 31806, 31958, 32763, 33037, 32079, 31365, 32503, 35565, 38652, 39571, 38081, 35085, 31124, 27524, 26646, 28633, 30765, 31825, 32813, 33194, 31940, 30562, 31000, 33486, 37022, 39524, 39427, 37365, 34284, 30286, 26871, 26630, 29149, 31315, 32264, 33145, 33188, 31401, 29799, 31032, 34818, 38295, 39284, 38395, 37055, 34733, 30543, 26671, 26330, 28612], [37341, 34403, 30224, 30620, 33509, 33052, 29418, 25899, 24258, 25479, 29164, 33518, 37909, 41503, 41308, 37139, 33614, 32819, 32461, 32272, 33588, 34631, 32708, 28347, 24620, 23841, 25958, 29976, 35248, 40399, 42406, 39536, 34876, 32510, 32079, 32071, 33118, 34688, 34711, 32430, 28452, 24652, 23725, 26368, 30824, 35572, 39621, 40845, 38302, 35025, 33831, 33618, 33305, 33735, 34470, 33814, 30967, 26779, 23892, 24383, 27428, 31427, 35819, 39211, 39459, 37212, 35746, 36096, 36352, 35643, 34370, 32304, 29599, 26952, 24675, 23854, 25939, 30186, 34626, 38543, 40894, 39833, 36563, 34321, 33286, 32436, 32897, 34684, 35246, 32787, 27949, 23650, 23006, 25894, 30048, 34701, 39342, 41295, 39147, 35907], [32508, 35515, 37416, 34740, 30286, 29569, 32202, 34589, 35897, 36187, 34969, 33005, 31113, 29651, 29981, 32028, 32879, 31575, 30912, 32288, 33477, 33145, 33450, 35678, 37148, 35926, 33843, 32027, 29406, 27051, 28194, 32482, 35447, 35460, 34924, 34317, 32495, 30499, 29784, 30658, 33090, 35735, 36636, 35714, 33999, 32008, 30378, 29993, 30739, 31663, 32534, 33424, 33472, 32418, 31569, 32032, 33620, 35005, 34932, 34106, 34078, 33963, 31819, 29738, 31758, 36090, 36596, 31528, 25385, 23762, 27568, 32430, 35795, 39527, 42955, 41998, 36512, 30884, 27910, 26964, 26888, 27744, 29859, 32538, 34780, 36109, 35853, 33786, 31663, 31680, 33944, 36388, 36456, 33999, 31738, 30912, 30080, 29434, 30789, 33115], [31788, 34745, 35558, 32948, 30537, 31458, 34260, 36488, 37384, 36764, 34947, 32638, 30044, 28052, 28214, 29963, 31470, 32847, 34611, 35298, 33742, 31449, 31091, 33320, 35862, 36680, 36169, 34682, 31351, 27313, 26635, 30829, 35300, 35725, 33913, 32893, 32241, 30998, 29855, 30247, 32963, 36400, 37856, 37008, 35135, 32565, 29895, 28885, 29894, 31346, 32297, 32816, 32715, 32054, 31496, 31692, 33230, 35768, 37242, 36266, 34365, 33438, 32638, 30810, 29584, 30308, 31307, 31160, 30831, 31216, 31826, 32488, 33810, 35842, 37770, 38287, 36509, 33536, 31124, 29189, 27590, 27992, 30669, 33163, 34241, 34581, 33653, 31246, 30110, 32151, 35197, 36867, 37219, 36443, 34425, 31791, 29138, 27625, 28999, 32006], [32586, 32332, 31988, 32222, 33040, 33352, 32570, 31341, 30560, 30624, 31477, 32772, 34204, 35339, 35307, 34098, 33131, 32984, 32653, 31930, 31924, 32792, 33118, 32077, 30714, 30301, 30947, 32321, 34087, 35567, 35823, 34419, 32498, 31757, 32036, 32201, 32540, 33658, 34504, 33661, 31563, 29921, 29618, 30454, 32087, 34038, 35478, 35592, 34430, 33220, 32771, 32581, 32540, 33109, 33602, 32973, 31478, 30142, 29728, 30430, 31860, 33424, 34855, 35972, 35976, 34446, 32719, 32078, 31951, 31787, 32200, 33132, 33269, 31939, 30380, 30211, 31266, 32407, 33553, 34997, 35890, 35342, 33899, 32552, 31608, 31325, 31987, 33169, 34095, 33823, 31599, 28976, 28900, 31234, 33354, 34640, 35817, 36073, 34672, 32971], [30768, 31724, 31878, 34219, 34704, 29654, 22468, 20117, 24843, 32194, 38226, 43339, 47167, 44877, 35167, 27260, 27932, 30947, 31212, 32400, 34791, 33438, 27406, 21500, 21407, 27371, 34266, 39631, 44832, 47492, 42163, 31461, 26047, 28566, 31392, 32100, 33992, 35342, 32083, 25313, 20795, 22779, 28971, 34967, 40759, 46627, 47333, 39014, 28931, 26685, 29691, 31115, 32240, 34941, 35420, 30836, 23647, 19963, 23433, 30764, 37277, 42580, 46610, 45266, 36740, 28581, 27784, 30238, 31152, 32940, 35644, 34395, 27929, 21194, 20298, 25881, 33095, 38910, 44104, 47138, 43115, 33304, 27495, 29339, 31726, 31769, 33223, 34974, 32389, 25679, 20254, 21201, 27782, 35157, 41160, 46295, 47536, 40469, 29937, 26381], [65535, 38242, 15753, 31298, 65535, 65535, 23053, 0, 0, 0, 0, 0, 65535, 65535, 65535, 65535, 65535, 62744, 33791, 12218, 34151, 65535, 65535, 0, 0, 0, 0, 0, 13401, 65535, 65535, 65535, 65535, 65535, 53735, 28832, 25825, 65535, 65535, 60692, 0, 0, 0, 0, 0, 61835, 65535, 65535, 65535, 65535, 65535, 44562, 18029, 26248, 65535, 65535, 31371, 0, 0, 0, 0, 0, 65535, 65535, 65535, 65535, 65535, 63469, 36637, 20444, 45475, 65535, 65535, 0, 0, 0, 0, 0, 0, 65535, 65535, 65535, 65535, 65535, 54740, 26486, 18468, 54728, 65535, 65106, 0, 0, 0, 0, 0, 52342, 65535, 65535, 65535, 65535]], "framecount": 14.0, "time": 1489540167620}
{"dataframe": [[33771, 33354, 32863, 32921, 33158, 32362, 31529, 32104, 32803, 32632, 32695, 32875, 32222, 31799, 32511, 33105, 33011, 33306, 33968, 33866, 33158, 32823, 32846, 32699, 32321, 31933, 31779, 31892, 32007, 32227, 32919, 33658, 33802, 33623, 33344, 32748, 32395, 32797, 33117, 32842, 32709, 32954, 32990, 32443, 31433, 30963, 32028, 33531, 33738, 33148, 32900, 32830, 33076, 33954, 34307, 33517, 32807, 32421, 31407, 30385, 30698, 31939, 32994, 33932, 34688, 34021, 32266, 31815, 32891, 33617, 33950, 34190, 32992, 31058, 31153, 32746, 32864, 31571, 31301, 32525, 33704, 33876, 33413, 33099, 33170, 33241, 33067, 32889, 32836, 32750, 32681, 32552, 31942, 31248, 31553, 32733, 33623, 33741, 33300, 32747], [30341, 31493, 32945, 32798, 30833, 30684, 33707, 37257, 39543, 40128, 38232, 34531, 30750, 27475, 25916, 27697, 30978, 32551, 32668, 32733, 32197, 31146, 31391, 33719, 36870, 38963, 39018, 37351, 34519, 30638, 26904, 26048, 28598, 31524, 32919, 33477, 33173, 31678, 30390, 31052, 34045, 37652, 38981, 37660, 36213, 34951, 31619, 27502, 26667, 28955, 31094, 32267, 32840, 32176, 30685, 30105, 31759, 35532, 39172, 40179, 38762, 36352, 32915, 28676, 26210, 27459, 30361, 31821, 31866, 31668, 30988, 30284, 31438, 34807, 38357, 40009, 39403, 37480, 34625, 30287, 25973, 25448, 28854, 31814, 32518, 32895, 33058, 31692, 30190, 31149, 34543, 38060, 39895, 39582, 37134, 33095, 28811, 26018, 26311, 29434], [34527, 34150, 33847, 34632, 35707, 33884, 28353, 22802, 21283, 23958, 28546, 33653, 38788, 42522, 42493, 38514, 34005, 31825, 31449, 31900, 33311, 34747, 33957, 30155, 25598, 23492, 24816, 28275, 32736, 37729, 41586, 41976, 39278, 36256, 33813, 31146, 29685, 31246, 33250, 31679, 27451, 24960, 25861, 28630, 32395, 37069, 41034, 41651, 38398, 34179, 31500, 29576, 28340, 30205, 34747, 37650, 36103, 31311, 26637, 24806, 26069, 29242, 33747, 38461, 40307, 37992, 34808, 33682, 33600, 33524, 34171, 34876, 33484, 29575, 25541, 24158, 25871, 29264, 33283, 37455, 40238, 39499, 35939, 33129, 32595, 32927, 33743, 35520, 36754, 34863, 29384, 23591, 21600, 23759, 27718, 32750, 38862, 43196, 42437, 38176], [33499, 32183, 31765, 32333, 32410, 32785, 34576, 36391, 36555, 35139, 33242, 32053, 31273, 29746, 28791, 30143, 32118, 33098, 33944, 34309, 32950, 31337, 31861, 34186, 36356, 37215, 35894, 32474, 29789, 29514, 29203, 28761, 32016, 37457, 38562, 34104, 28449, 25769, 28130, 33673, 37745, 38483, 37605, 36060, 33205, 29847, 28384, 29516, 31481, 32633, 32808, 32666, 32682, 32475, 31728, 31629, 33187, 35122, 36131, 36447, 35698, 33364, 30781, 29525, 29709, 30625, 31353, 31641, 32334, 33508, 33606, 32293, 31968, 34003, 36519, 37685, 37177, 34585, 30506, 27602, 27667, 29620, 31626, 32915, 33508, 33690, 33199, 32066, 31932, 33606, 35760, 37190, 37039, 34987, 32579, 30670, 28338, 26955, 28921, 32325], [33121, 32507, 32757, 33314, 32648, 31882, 32556, 34701, 36951, 37233, 35426, 33492, 31854, 29824, 28607, 29277, 30667, 31952, 33210, 33650, 32858, 31870, 31872, 33562, 36333, 37851, 36792, 34642, 32842, 30680, 28067, 27416, 29837, 32586, 33427, 33514, 33657, 32948, 32055, 32704, 34363, 35422, 35785, 35583, 34178, 31994, 30465, 30076, 30399, 30931, 31392, 32098, 32907, 32683, 31743, 32022, 33661, 35297, 36846, 37915, 36716, 33453, 30304, 28236, 27724, 29146, 31003, 32147, 33646, 35206, 34488, 31893, 30933, 32939, 35803, 37557, 37380, 35027, 31964, 30021, 28876, 28141, 29085, 31550, 33329, 33850, 34295, 34366, 32808, 30883, 31649, 34976, 37375, 37281, 35874, 33610, 30381, 27806, 27782, 29661], [32388, 32365, 32004, 31929, 32656, 32990, 32000, 30747, 30662, 31642, 32615, 33202, 33994, 35054, 35215, 33879, 32288, 31763, 32195, 32876, 33409, 33749, 33665, 32521, 30561, 29344, 29766, 31176, 32902, 34864, 36326, 36032, 34273, 32774, 32324, 32503, 32817, 32745, 32254, 31860, 31306, 30416, 30326, 31538, 33079, 34338, 35246, 35383, 34600, 33471, 32556, 32103, 32158, 32406, 32648, 33047, 32988, 31452, 29523, 29630, 31758, 33717, 34732, 35484, 35653, 34536, 33022, 32299, 32022, 31807, 32285, 33272, 33341, 31966, 30384, 29978, 30765, 32031, 33628, 35355, 36095, 35174, 33555, 32533, 32234, 32175, 32297, 32692, 33155, 33109, 31920, 30201, 29670, 30749, 32360, 33929, 35376, 35935, 35054, 33729], [29598, 31852, 32707, 34743, 34811, 29843, 22710, 19639, 23683, 31353, 37934, 42864, 46502, 45323, 36913, 28231, 27245, 30208, 31164, 32443, 35081, 34439, 28953, 22896, 21517, 25789, 32011, 37420, 42679, 46669, 44013, 34373, 27523, 28839, 31654, 32139, 33672, 35112, 32074, 25443, 20350, 21304, 28065, 35805, 41506, 45832, 46754, 40112, 30060, 26442, 29133, 30825, 31775, 34937, 36242, 31668, 24175, 20064, 22848, 30233, 37488, 42705, 45800, 44222, 36213, 28241, 27883, 31454, 32511, 33119, 35167, 34580, 28954, 21610, 18866, 23811, 32535, 39873, 45027, 47643, 44073, 34311, 27012, 27582, 30320, 31070, 32713, 34862, 33427, 27985, 22335, 21526, 27049, 34644, 40365, 44552, 46111, 40636, 30725, 26744], [65535, 42848, 21299, 29059, 65535, 65535, 46777, 0, 0, 0, 0, 0, 65535, 65535, 65535, 65535, 65535, 65535, 45083, 25502, 43508, 65535, 65535, 0, 0, 0, 0, 0, 0, 65535, 65535, 65535, 65535, 65535, 56926, 29598, 15909, 48485, 65535, 65535, 0, 0, 0, 0, 0, 28904, 65535, 65535, 65535, 65535, 65535, 46489, 19880, 20652, 64346, 65535, 54195, 0, 0, 0, 0, 0, 65535, 65535, 65535, 65535, 65535, 65535, 39924, 20651, 38136, 65535, 65535, 29187, 0, 0, 0, 0, 0, 65535, 65535, 65535, 65535, 65535, 65535, 34629, 14460, 37901, 65535, 65535, 0, 0, 0, 0, 0, 21109, 65535, 65535, 65535, 65535]], "framecount": 15.0, "time": 1489540167729}
{"dataframe": [[32691, 33047, 33145, 33076, 33260, 33342, 33027, 32614, 32068, 31327, 31059, 31647, 32623, 33645, 34533, 34630, 33610, 32198, 31415, 31716, 32706, 33463, 33574, 33365, 33065, 32661, 32272, 31970, 31755, 31873, 32395, 32970, 33432, 33654, 33410, 33052, 32848, 32517, 32550, 33458, 33931, 32924, 31729, 31592, 32054, 32377, 32350, 32352, 32996, 33792, 33696, 33082, 32998, 33184, 32829, 32305, 32475, 33186, 33417, 32473, 31134, 30991, 32089, 33101, 33649, 34007, 33830, 33155, 32705, 32652, 32761, 32985, 33047, 32682, 32227, 32064, 32109, 32169, 32201, 32280, 32770, 33883, 34744, 34236, 32899, 32170, 32042, 31588, 31194, 32023, 33689, 34549, 34003, 32880, 32061, 31804, 31944, 32362, 32974, 33305], [32372, 32995, 32683, 32675, 31962, 30818, 31665, 35032, 38428, 39706, 38736, 36102, 32282, 28151, 25739, 26956, 30482, 32929, 33371, 32890, 31819, 30763, 31111, 33225, 36221, 38744, 39318, 37524, 34487, 31078, 27759, 26609, 28954, 31880, 32546, 32428, 32900, 32394, 30506, 29753, 32122, 36416, 39633, 40107, 38218, 34892, 31044, 27989, 27223, 28787, 30635, 31393, 31728, 31789, 30825, 29833, 31183, 35222, 39357, 41218, 40674, 37912, 33059, 28116, 25727, 26413, 28704, 30904, 32162, 32507, 32173, 31430, 31352, 33313, 36812, 39461, 39807, 38179, 35117, 31116, 27471, 26059, 27620, 30483, 32463, 33232, 33245, 32383, 31021, 30563, 32227, 35710, 39193, 40669, 39102, 34979, 30268, 27121, 26511, 27997], [34838, 33529, 32762, 32277, 32233, 31779, 29904, 26812, 24756, 25739, 28868, 32653, 37327, 41676, 41472, 35872, 30907, 31042, 33374, 34217, 34066, 34356, 34522, 32695, 28610, 25240, 25365, 27994, 30650, 32987, 35631, 37594, 37938, 37742, 37653, 36738, 35147, 34122, 33554, 31914, 28200, 24019, 22630, 24986, 29024, 32852, 36218, 38837, 39437, 38112, 37075, 36950, 36198, 34805, 33997, 33130, 30229, 25375, 21766, 22037, 25318, 29887, 35558, 41227, 43527, 40988, 36748, 34118, 32939, 32408, 32854, 34065, 34672, 32233, 25949, 20413, 20868, 26063, 32084, 38227, 43428, 43952, 39642, 35273, 33216, 32146, 31819, 32570, 33232, 32395, 29366, 25346, 23536, 25460, 29531, 34129, 38669, 41488, 40260, 35824], [33809, 33579, 33265, 33429, 33946, 34078, 33946, 34879, 36048, 34859, 31677, 29299, 28959, 30829, 34807, 37965, 36047, 29459, 24248, 25610, 31620, 35769, 35984, 35808, 36308, 35725, 35444, 36740, 36627, 33345, 29220, 26267, 24822, 25608, 29188, 33917, 36755, 36872, 35949, 34654, 33371, 34161, 36560, 36786, 34292, 31703, 29257, 27076, 27809, 31046, 32734, 32100, 31629, 32267, 33753, 35806, 37301, 37358, 36176, 34000, 31503, 30099, 29994, 29790, 29316, 30264, 32638, 33902, 33287, 33354, 35203, 35988, 34043, 31831, 31401, 32303, 33770, 34600, 33552, 31375, 30047, 30765, 32875, 34132, 33553, 32509, 31814, 31088, 30850, 32083, 34289, 35889, 36269, 35709, 34227, 32385, 31082, 30176, 29533, 29657], [31605, 33212, 34427, 34170, 32379, 31212, 32464, 35214, 36892, 36041, 33728, 32079, 31902, 32351, 32318, 31683, 31146, 30680, 29745, 29654, 32001, 34560, 34456, 33549, 34471, 36074, 36826, 36687, 35064, 31865, 28847, 27489, 27948, 29900, 32212, 33410, 33396, 32927, 32387, 32721, 35031, 37863, 38246, 36007, 33462, 31437, 29207, 27505, 28210, 31078, 33470, 33702, 32624, 31907, 32375, 33596, 34734, 35655, 35957, 34763, 33145, 33039, 33135, 30905, 28247, 28984, 31872, 33090, 33225, 34235, 34254, 32224, 30994, 31820, 33068, 34526, 36470, 37122, 35394, 32446, 29750, 28828, 30229, 31767, 31854, 31966, 32699, 32511, 31456, 31535, 33606, 36292, 37667, 37141, 35308, 32831, 30262, 28610, 28995, 30844], [33021, 32489, 31876, 31993, 32739, 32944, 32225, 31114, 30243, 30241, 31425, 33295, 34942, 35790, 35516, 34103, 32526, 32063, 32624, 33076, 32936, 32640, 32372, 31747, 30901, 30479, 30614, 31360, 32949, 34912, 36231, 35998, 34307, 32818, 32488, 32187, 31676, 32119, 32967, 32771, 31744, 30727, 30241, 30906, 32483, 33952, 35165, 35967, 35198, 33187, 32229, 32701, 32688, 32031, 32155, 32678, 32289, 31286, 30783, 31100, 31899, 32891, 34121, 35439, 35697, 34091, 32120, 31731, 32540, 33038, 32891, 32782, 32965, 32672, 31441, 30251, 30216, 31284, 32872, 34592, 35840, 35585, 33893, 32552, 32432, 32465, 32340, 32811, 33447, 33171, 31964, 30535, 29729, 30234, 31820, 33634, 35191, 35989, 35400, 33924], [30117, 32370, 32242, 34019, 35252, 31484, 24423, 19917, 22143, 29395, 36676, 42108, 46251, 46206, 38549, 29012, 26790, 30054, 31997, 33058, 34688, 33982, 29394, 23264, 20571, 24379, 31283, 36963, 42141, 46932, 45873, 36842, 28703, 28563, 30812, 30315, 30875, 33607, 33600, 28828, 23045, 21909, 26873, 33598, 38795, 43391, 46248, 42485, 33173, 27689, 29414, 31553, 31416, 32593, 34237, 32093, 26141, 21403, 22774, 29189, 35677, 40631, 45164, 46383, 39899, 30284, 26957, 29204, 30545, 31579, 34096, 34645, 30983, 25306, 22127, 24571, 30621, 36391, 41345, 45631, 45136, 36837, 27975, 27289, 30841, 31735, 32318, 34607, 34384, 29547, 23554, 21555, 25404, 32047, 38173, 43349, 46349, 43024, 33671, 27116], [65535, 47204, 22426, 23039, 65535, 65535, 65535, 0, 0, 0, 0, 0, 56392, 65535, 65535, 65535, 65535, 65535, 45866, 19383, 27251, 65535, 65535, 29966, 0, 0, 0, 0, 0, 65535, 65535, 65535, 65535, 65535, 56351, 30185, 16373, 46506, 65535, 65535, 603, 0, 0, 0, 0, 0, 65535, 65535, 65535, 65535, 65535, 57946, 30454, 20858, 54961, 65535, 63537, 0, 0, 0, 0, 0, 49271, 65535, 65535, 65535, 65535, 65535, 41766, 20147, 29629, 65535, 65535, 45242, 0, 0, 0, 0, 0, 65535, 65535, 65535, 65535, 65535, 65535, 41978, 20878, 38797, 65535, 65535, 7785, 0, 0, 0, 0, 0, 65535, 65535, 65535, 65535]], "framecount": 16.0, "time": 1489540167808}
{"dataframe": [[33099, 32860, 32878, 32824, 32748, 33113, 33514, 33048, 32210, 32091, 32272, 32088, 32242, 33091, 33804, 33822, 33065, 31815, 31394, 32476, 33434, 33116, 32892, 33793, 34487, 33485, 31569, 30835, 31649, 32449, 32540, 32497, 32526, 32821, 33652, 34049, 33289, 32719, 33301, 33921, 33662, 32818, 31783, 30987, 30949, 31501, 32067, 32709, 33666, 34285, 33924, 33300, 33257, 33169, 32370, 31861, 32673, 33852, 33894, 32863, 31731, 31030, 30985, 31638, 32556, 33262, 33658, 33817, 33885, 33964, 33796, 33152, 32445, 32121, 31955, 31865, 32196, 32738, 32867, 32380, 31681, 31753, 32993, 34181, 34236, 33798, 33563, 33040, 32151, 31814, 32261, 32795, 33044, 32930, 32400, 31814, 31565, 31823, 32773, 33949], [30218, 32026, 33033, 33025, 32006, 30783, 31049, 34143, 38542, 40708, 39525, 36601, 32818, 28530, 25753, 26439, 29457, 31959, 32884, 33017, 32911, 32367, 31482, 31788, 34681, 38399, 39855, 38466, 35316, 31397, 28063, 26831, 28050, 30244, 31708, 32466, 32970, 32761, 31980, 31694, 32812, 35590, 38638, 39555, 37645, 34163, 30494, 27854, 27320, 28710, 30677, 32252, 33024, 32762, 31861, 31033, 31156, 33292, 36860, 39493, 39748, 37553, 33439, 29252, 27221, 27851, 29889, 31545, 31964, 31903, 32028, 31641, 30672, 31245, 34805, 38981, 40311, 38709, 36157, 33046, 29158, 26515, 27144, 29365, 30885, 32422, 33902, 33218, 31057, 30285, 31917, 35338, 38813, 40042, 38713, 35895, 31908, 27959, 26591, 28084], [32786, 33986, 36372, 35584, 32834, 31922, 31485, 27830, 22690, 20896, 23988, 30314, 37599, 43380, 45034, 41651, 36041, 32074, 30484, 30534, 32329, 34276, 33402, 29662, 25955, 24586, 25857, 28979, 33163, 37739, 41173, 41109, 37352, 33286, 31616, 31663, 32715, 34896, 36239, 34250, 29685, 25634, 24019, 24503, 26360, 30121, 36202, 42025, 43322, 39987, 36376, 34568, 33360, 32562, 32400, 31736, 29515, 26300, 24920, 27085, 29508, 29902, 32402, 38893, 42868, 39514, 33728, 31998, 33699, 35118, 35187, 34231, 32439, 30058, 26993, 24189, 24630, 29355, 34327, 36090, 36875, 38200, 37257, 34480, 33576, 34015, 33893, 34468, 35607, 34529, 30665, 26279, 23668, 23980, 26936, 31438, 36686, 40997, 41310, 37531], [30206, 30817, 33300, 38262, 40579, 35655, 28295, 26646, 30585, 34167, 34901, 34137, 33253, 33401, 34653, 34668, 32110, 29621, 29842, 31348, 31638, 31179, 31750, 33439, 34993, 35579, 35750, 36195, 35679, 33023, 29988, 28807, 29387, 30965, 33006, 33948, 32329, 29239, 28179, 31710, 37534, 40367, 39058, 36804, 34473, 30951, 27771, 27084, 28582, 30836, 32557, 33314, 33479, 32703, 31172, 31444, 34894, 38444, 38640, 36354, 33926, 31327, 28412, 26619, 27628, 32421, 38183, 38618, 32872, 27571, 26658, 28349, 31458, 35578, 38639, 39528, 38429, 35540, 32592, 30731, 28734, 27656, 29502, 31481, 31175, 31230, 32740, 33506, 33620, 34563, 35821, 36500, 36494, 35556, 33601, 30884, 27971, 26785, 29018, 32850], [32040, 32034, 32305, 33210, 33375, 32537, 32338, 33739, 35717, 36814, 36273, 34214, 31952, 30682, 29948, 29368, 29780, 31086, 32282, 33383, 34234, 33688, 32181, 32145, 34290, 36525, 37179, 35798, 32500, 29427, 28892, 30030, 31242, 32672, 33930, 33638, 31854, 30207, 30268, 32443, 35267, 36772, 36933, 36504, 35107, 32794, 30546, 28928, 28716, 30273, 31893, 32276, 32230, 32114, 31663, 31874, 34130, 37765, 39427, 37079, 33513, 31868, 30943, 28944, 27522, 28805, 31574, 33385, 34104, 34326, 33566, 32364, 32157, 32998, 34424, 36051, 36430, 34936, 33061, 31163, 28805, 28363, 30967, 32971, 32862, 33168, 33629, 32433, 31225, 31854, 33448, 35166, 36852, 37334, 35435, 31924, 29017, 28449, 30169, 32431], [32735, 32057, 31822, 32322, 33106, 33328, 32902, 31860, 30363, 29682, 30706, 32388, 33806, 35229, 35926, 34855, 33383, 33060, 32865, 32059, 31878, 32624, 33119, 32774, 31608, 30158, 29841, 31128, 32834, 34340, 35686, 35912, 34486, 32843, 32274, 32421, 32785, 33377, 33602, 32601, 30793, 29546, 29512, 30458, 32126, 34195, 36002, 36744, 35838, 33733, 32000, 31530, 31658, 31921, 32861, 33927, 33213, 30989, 29907, 30475, 31208, 32313, 34174, 35489, 35677, 35078, 33719, 32417, 31978, 31825, 31921, 32820, 33479, 32716, 31316, 30486, 30529, 31539, 33206, 34515, 34977, 34823, 34041, 32934, 32385, 32496, 32688, 32911, 33167, 32949, 32073, 31009, 30322, 30421, 31484, 33291, 35207, 36088, 35029, 32969], [28123, 30798, 31843, 34160, 36255, 33769, 27461, 21994, 21352, 25977, 32824, 39280, 44930, 47206, 41544, 31466, 27418, 30156, 31679, 31440, 33272, 34641, 31626, 25524, 21283, 22927, 29286, 36034, 41558, 45818, 45207, 37367, 29340, 28479, 30914, 31562, 32825, 35234, 34408, 28719, 21801, 19681, 24574, 32195, 38673, 44179, 47477, 44100, 34366, 27299, 28043, 30503, 31006, 33272, 36392, 34756, 27642, 20560, 19991, 26342, 33947, 39762, 44823, 46934, 41665, 32299, 28183, 30242, 31278, 30375, 31755, 34097, 32564, 26548, 21550, 23261, 30092, 36386, 40781, 44598, 44928, 38068, 29412, 27762, 30880, 31828, 32166, 34544, 34744, 29603, 22971, 21030, 25080, 31358, 37236, 42881, 46988, 44967, 35590, 27168], [65535, 56602, 29740, 17937, 50394, 65535, 65535, 0, 0, 0, 0, 0, 28634, 65535, 65535, 65535, 65535, 65535, 50189, 24198, 25632, 65535, 65535, 50720, 0, 0, 0, 0, 0, 65535, 65535, 65535, 65535, 65535, 65535, 37169, 12714, 27847, 65535, 65535, 20284, 0, 0, 0, 0, 0, 65535, 65535, 65535, 65535, 65535, 60240, 33161, 18089, 48089, 65535, 65535, 0, 0, 0, 0, 0, 12898, 65535, 65535, 65535, 65535, 65535, 52763, 25184, 20251, 59280, 65535, 59223, 0, 0, 0, 0, 0, 64860, 65535, 65535, 65535, 65535, 65535, 43696, 21385, 32885, 65535, 65535, 31542, 0, 0, 0, 0, 0, 65535, 65535, 65535, 65535]], "framecount": 17.0, "time": 1489540167933}
{"dataframe": [[34398, 34051, 33413, 32633, 32069, 32308, 32912, 32705, 31846, 31845, 32824, 33174, 32544, 32356, 32977, 33310, 33164, 33247, 33335, 32833, 32216, 32198, 32618, 33076, 33425, 33424, 32884, 32153, 31751, 31777, 32194, 32889, 33258, 33049, 32929, 33142, 33230, 33211, 33213, 32991, 32706, 32621, 32437, 32087, 31968, 32218, 32779, 33451, 33587, 33028, 32772, 33010, 32417, 31203, 31403, 33008, 34105, 34368, 34460, 33930, 32567, 31471, 31224, 31320, 31732, 32544, 32891, 32613, 32847, 33558, 33619, 33497, 34223, 34800, 33860, 32046, 30736, 30366, 30737, 31597, 32735, 33820, 34193, 33453, 32374, 32441, 33908, 34911, 33906, 32256, 32017, 32500, 32167, 31692, 32012, 32342, 32169, 32211, 32740, 33213], [30052, 31427, 32738, 33256, 32137, 30435, 29900, 32058, 36853, 41092, 41724, 39181, 34841, 29504, 25661, 25744, 28244, 30255, 31558, 32650, 32775, 31974, 31424, 32193, 35075, 38991, 40855, 39471, 36379, 32441, 27857, 24888, 26051, 29836, 32397, 32937, 33034, 32662, 31384, 30897, 32954, 36569, 39064, 39021, 37309, 35344, 32928, 29294, 26273, 26643, 29121, 30440, 30910, 32201, 33343, 33363, 33526, 35032, 37500, 39552, 39534, 36701, 32167, 27923, 25551, 26064, 28907, 31706, 33161, 34015, 34240, 32939, 31078, 31069, 33771, 37547, 39947, 39498, 36449, 32248, 28178, 25540, 25984, 29298, 33048, 35052, 34316, 31801, 30260, 30881, 32749, 35380, 37979, 38897, 37934, 35791, 32290, 28318, 26597, 28090], [33992, 33168, 33337, 33624, 34633, 35140, 33270, 29146, 24749, 22670, 24381, 28869, 33960, 38604, 41793, 41311, 37289, 33487, 32061, 31965, 32679, 34273, 35186, 33292, 28670, 24389, 23505, 25891, 29678, 34218, 39095, 41635, 39614, 35734, 34003, 33830, 33144, 32818, 33776, 34226, 32043, 27698, 24089, 23962, 27327, 31411, 34292, 36843, 38965, 38767, 37184, 36600, 36273, 35152, 34494, 34209, 32129, 27782, 23342, 21412, 23173, 27765, 33264, 38460, 42222, 42477, 39234, 35869, 34438, 33903, 33519, 33151, 31717, 28868, 26025, 24141, 23343, 25062, 30418, 37373, 42820, 44558, 41497, 36091, 32509, 31028, 30129, 30686, 32779, 33838, 32163, 28609, 25505, 24942, 27168, 31209, 36303, 40820, 41643, 38095], [34923, 34598, 33518, 32958, 32779, 32366, 32316, 33378, 34522, 34611, 33957, 33409, 33497, 33022, 30611, 28671, 29935, 32577, 34118, 34423, 33495, 31778, 30815, 31521, 33708, 35982, 36458, 35580, 34966, 33446, 30057, 27942, 29032, 30664, 31359, 32652, 34625, 35343, 33750, 31152, 30289, 32486, 36401, 39343, 38841, 34760, 29840, 26630, 26145, 28843, 32930, 34733, 33665, 32450, 32224, 32183, 32654, 34380, 36489, 37485, 36582, 33981, 30918, 28457, 27177, 28582, 33238, 37659, 37191, 31949, 27151, 26821, 29495, 32593, 36615, 40645, 40913, 37519, 34062, 31107, 28111, 27002, 28175, 29376, 30319, 32050, 33761, 35076, 36315, 35427, 32136, 31046, 34067, 37602, 38648, 36071, 30492, 26196, 26432, 28950], [33460, 33238, 32900, 32460, 31012, 29686, 31042, 34492, 36892, 37370, 36780, 35114, 32732, 30658, 29481, 29599, 30633, 31513, 32074, 32534, 32596, 32252, 31826, 32062, 34198, 37378, 38387, 36527, 34161, 31861, 29160, 28085, 29771, 31505, 31509, 31552, 32726, 33580, 33110, 32358, 32961, 35208, 37486, 37704, 35338, 32006, 29652, 28632, 28829, 30732, 33322, 34210, 33203, 32100, 31485, 31026, 31473, 33638, 36407, 37694, 36800, 34736, 32668, 30779, 29286, 29310, 30771, 31757, 31804, 32128, 32337, 31421, 30897, 32930, 36740, 39365, 39068, 36606, 33444, 30157, 27276, 26361, 28289, 31337, 33317, 34149, 34451, 34132, 33092, 31704, 31270, 33101, 36226, 38345, 38166, 35243, 30608, 27371, 27323, 28934], [31960, 32279, 32629, 32831, 33411, 33695, 32890, 31578, 30684, 30419, 30760, 31631, 32847, 34497, 35961, 35652, 33879, 32748, 32394, 31851, 31932, 33129, 33860, 33041, 31465, 30354, 30200, 30790, 31870, 33500, 35339, 36129, 35057, 33346, 32701, 32759, 32338, 32020, 32717, 33253, 32357, 31019, 30380, 30221, 30846, 32822, 35129, 36258, 35699, 33899, 32351, 32232, 32661, 32504, 32376, 32913, 33297, 32565, 30980, 29836, 30153, 31689, 33477, 34900, 35653, 35320, 34020, 32692, 31977, 31918, 32605, 33684, 34049, 33021, 31120, 29533, 29197, 30208, 32067, 34196, 35977, 36691, 35978, 34409, 32849, 31596, 30941, 31241, 32066, 32740, 32915, 32296, 31229, 30570, 30734, 32003, 34266, 36116, 36192, 34885], [26981, 30206, 31297, 33122, 36227, 35218, 28665, 21851, 20462, 25236, 32630, 39334, 44332, 46452, 42549, 33484, 27662, 28952, 31062, 31198, 32913, 34922, 32617, 26581, 22027, 22991, 28458, 34509, 39588, 44248, 45879, 40337, 31484, 28339, 30498, 31141, 30754, 32661, 34192, 31604, 25875, 21953, 23905, 30175, 36390, 41249, 44946, 44076, 36343, 28881, 29219, 32691, 32890, 32553, 33694, 32675, 28109, 23132, 21949, 25926, 32009, 37284, 42281, 46238, 44058, 35138, 28628, 29520, 31356, 30875, 32091, 34379, 32999, 27405, 21737, 21254, 27149, 34959, 40928, 45147, 46092, 40302, 31233, 27512, 29342, 30646, 31727, 34654, 35505, 31247, 24737, 21171, 23477, 29623, 35782, 41197, 45741, 45448, 37810, 29472], [65535, 63655, 35308, 16547, 40595, 65535, 65535, 0, 0, 0, 0, 0, 759, 65535, 65535, 65535, 65535, 65535, 54664, 29594, 22618, 59570, 65535, 65535, 0, 0, 0, 0, 0, 45360, 65535, 65535, 65535, 65535, 65535, 45793, 22720, 27724, 65535, 65535, 41118, 0, 0, 0, 0, 0, 65535, 65535, 65535, 65535, 65535, 65535, 39619, 19160, 39566, 65535, 65535, 3619, 0, 0, 0, 0, 0, 65535, 65535, 65535, 65535, 65535, 53942, 23922, 13381, 48911, 65535, 65535, 0, 0, 0, 0, 0, 26163, 65535, 65535, 65535, 65535, 65535, 54707, 30450, 30554, 65535, 65535, 50101, 0, 0, 0, 0, 0, 65535, 65535, 65535, 65535]], "framecount": 18.0, "time": 1489540168026}
{"dataframe": [[33402, 33500, 33528, 33470, 33482, 33406, 32997, 32565, 32256, 31755, 31453, 31929, 32468, 32306, 32207, 32864, 33650, 34001, 33938, 33459, 32919, 32812, 32818, 32605, 32666, 32857, 32192, 31250, 31590, 32641, 32930, 32911, 33209, 33111, 32758, 33104, 33605, 33386, 33269, 33831, 33818, 32573, 31230, 30566, 30528, 31370, 32905, 33970, 33953, 33624, 33861, 34198, 33525, 32116, 31407, 31887, 32848, 33600, 33784, 33221, 32031, 30847, 30645, 31681, 33039, 33888, 34229, 34196, 33786, 33201, 32686, 32295, 32210, 32674, 33204, 32929, 32095, 31738, 31954, 32103, 32064, 32326, 33338, 34576, 34651, 33333, 32246, 32340, 32680, 32733, 32992, 33034, 32324, 31735, 31781, 31940, 32280, 33027, 33640, 33939], [30550, 32016, 32710, 32896, 32207, 31146, 30997, 32781, 36303, 39413, 39759, 37427, 34057, 30318, 26933, 26438, 29573, 32683, 33212, 32819, 32448, 31120, 29757, 30466, 33444, 37129, 39654, 39822, 37653, 33962, 29862, 27109, 27361, 29850, 31779, 32078, 31997, 31899, 31014, 30139, 31373, 34980, 38609, 40188, 39889, 38082, 33778, 27869, 24758, 26506, 29404, 30690, 32138, 33806, 33306, 31711, 31573, 32770, 35072, 38392, 40292, 38842, 35278, 31283, 27776, 26395, 27853, 30105, 31292, 31987, 32774, 32794, 31803, 31446, 33533, 37391, 39999, 39296, 36165, 32884, 30604, 28805, 27524, 28135, 30301, 31890, 32584, 32993, 32226, 30611, 31083, 34692, 38573, 40116, 39279, 36614, 32605, 28586, 26455, 27231], [34136, 32888, 32999, 32974, 33426, 34163, 33521, 30493, 26332, 23851, 24525, 27608, 32205, 37665, 41729, 41551, 37760, 34213, 32781, 32349, 32543, 33841, 34946, 33461, 29067, 24633, 23210, 25121, 29195, 34471, 39367, 41373, 39418, 35890, 33899, 33579, 33756, 34311, 34718, 33670, 30722, 26724, 23605, 23336, 26060, 30504, 35961, 41227, 43028, 39884, 35301, 32771, 31986, 32480, 34353, 35422, 33590, 29837, 26099, 23109, 21648, 24221, 32407, 41866, 45371, 42121, 37666, 35196, 33414, 31215, 29488, 29705, 32035, 33730, 31810, 27945, 26177, 27198, 29521, 33013, 37436, 40383, 39559, 36171, 33423, 32208, 31719, 32408, 34393, 35499, 33569, 29162, 25204, 24187, 26182, 29893, 34461, 38981, 41070, 38952], [30869, 32488, 34075, 34606, 34156, 33496, 33093, 33841, 35477, 36028, 35201, 34244, 32591, 29505, 27465, 28906, 31833, 33141, 33221, 33601, 33738, 32849, 31814, 31955, 33520, 35527, 36779, 36701, 34936, 31608, 28357, 27560, 29878, 33043, 34096, 32697, 30853, 30500, 32667, 36149, 37116, 34609, 32927, 33733, 33898, 33081, 32652, 31200, 29444, 30159, 31679, 31488, 31313, 32735, 35054, 37458, 37179, 31629, 26224, 28663, 35440, 37917, 36141, 34438, 32929, 31049, 30077, 30100, 30739, 32080, 32577, 31148, 30154, 32042, 35693, 38152, 38045, 36307, 34137, 31794, 29511, 27942, 27675, 28842, 31286, 35068, 38562, 37929, 33170, 29694, 30070, 31648, 32839, 34171, 35192, 35306, 34450, 32309, 30156, 30203], [30497, 32025, 33422, 34025, 33904, 33468, 33082, 33535, 34712, 35345, 35522, 35875, 34740, 31097, 28022, 28302, 30241, 31511, 32436, 33278, 33176, 32395, 31956, 32386, 34038, 36244, 37477, 37307, 35684, 32269, 28433, 26865, 28631, 31923, 33670, 32757, 30951, 30679, 32832, 35510, 36012, 34994, 34799, 35028, 34543, 33927, 32785, 30095, 27823, 28432, 30900, 33141, 34250, 33712, 32320, 31684, 31898, 32909, 35372, 37720, 37404, 35203, 33208, 31203, 29049, 28215, 28886, 30148, 32250, 34505, 34493, 32504, 31691, 33040, 34930, 36186, 36446, 35587, 33990, 32116, 30074, 28363, 28079, 29641, 32392, 35358, 37012, 35825, 32464, 29590, 29108, 30968, 33876, 36092, 36700, 36361, 35286, 32624, 29847, 29809], [33387, 32268, 31691, 31806, 32402, 32879, 32728, 31942, 31092, 30748, 30893, 31484, 32909, 34975, 36315, 35685, 33705, 32306, 32064, 32018, 32166, 33101, 33875, 33188, 31598, 30405, 29883, 30081, 31482, 33804, 35804, 36453, 35423, 33418, 32152, 32455, 33089, 32817, 32147, 31920, 31845, 31336, 30769, 31018, 31921, 32640, 33575, 35249, 36093, 34875, 33162, 32380, 31956, 31819, 32585, 33440, 33180, 31981, 30711, 30152, 30649, 31734, 33037, 34752, 36150, 35773, 33997, 32651, 32112, 31802, 32025, 32784, 33227, 33000, 32078, 30673, 29955, 30696, 32160, 33686, 35327, 36419, 35807, 33832, 32086, 31122, 30635, 31210, 33069, 34545, 34189, 32589, 31048, 30136, 30140, 31518, 33792, 35368, 35469, 34687], [27996, 30261, 31069, 32526, 35311, 34834, 29446, 22960, 20797, 24914, 31566, 37035, 42178, 46846, 45411, 35960, 27706, 27563, 29964, 30749, 33379, 36458, 34157, 27071, 21261, 21290, 26730, 33515, 39259, 44398, 46915, 42424, 33138, 27805, 28618, 30264, 31572, 34059, 34715, 30714, 24518, 21183, 23712, 30293, 36745, 41544, 45290, 45440, 38575, 29631, 27143, 29611, 30903, 31873, 34258, 34743, 30773, 24579, 21641, 24957, 31189, 36422, 41272, 45633, 44402, 35888, 28683, 29109, 31521, 31570, 32800, 35029, 33397, 27431, 21621, 20975, 26348, 33402, 38902, 43839, 47116, 43507, 33855, 27750, 28646, 30042, 30132, 32537, 34988, 32638, 26695, 22617, 23955, 29272, 34855, 39543, 43940, 45343, 39663, 30831], [65535, 65535, 41561, 15855, 28022, 65535, 65535, 18818, 0, 0, 0, 0, 0, 65535, 65535, 65535, 65535, 65535, 59271, 36848, 23577, 49902, 65535, 65535, 0, 0, 0, 0, 0, 12745, 65535, 65535, 65535, 65535, 65535, 61770, 29730, 19462, 59898, 65535, 56900, 0, 0, 0, 0, 0, 64526, 65535, 65535, 65535, 65535, 65535, 43583, 19967, 31146, 65535, 65535, 31797, 0, 0, 0, 0, 0, 65535, 65535, 65535, 65535, 65535, 64243, 35245, 17345, 42294, 65535, 65535, 0, 0, 0, 0, 0, 0, 65535, 65535, 65535, 65535, 65535, 55417, 29257, 21730, 57816, 65535, 65535, 0, 0, 0, 0, 0, 46337, 65535, 65535, 65535]], "framecount": 19.0, "time": 1489540168120}
{"dataframe": [[34010, 33252, 31950, 31768, 32816, 33413, 33285, 33326, 33190, 32295, 31333, 31182, 31878, 32734, 33145, 33403, 33857, 34041, 33726, 33226, 32469, 31587, 31570, 32668, 33386, 32698, 31879, 32250, 33047, 33215, 32973, 32832, 32933, 33167, 33095, 32602, 32401, 32775, 33094, 33171, 33326, 33270, 32520, 31438, 30923, 31423, 32579, 33666, 34244, 34253, 33700, 32803, 32077, 31962, 32538, 33198, 33091, 32491, 32355, 32614, 32703, 32662, 32506, 32262, 32506, 33270, 33629, 33200, 32462, 31900, 32063, 33089, 33898, 33692, 33315, 33460, 33397, 32429, 31029, 30421, 31348, 32842, 33373, 33232, 33664, 34322, 33918, 32693, 32110, 32494, 32954, 33046, 32788, 32063, 31314, 31467, 32415, 33200, 33764, 34411], [29630, 31373, 32213, 33010, 33017, 31627, 30700, 32262, 35771, 38844, 39597, 38053, 35355, 31973, 28275, 26325, 27701, 30416, 31798, 32187, 32766, 33009, 32234, 31585, 33052, 36419, 38892, 38712, 36685, 33877, 30571, 27658, 26858, 28653, 31485, 33543, 33892, 32533, 30701, 30017, 31276, 34367, 37921, 39839, 39332, 36920, 33034, 28634, 26036, 26969, 30002, 32133, 32694, 32750, 32385, 31654, 31528, 32515, 34650, 37596, 39674, 39212, 36495, 32468, 27933, 25292, 26682, 30063, 32074, 32820, 33481, 33274, 31902, 31144, 32593, 35740, 38495, 39205, 37814, 34994, 31227, 27579, 26209, 27980, 30760, 32528, 33513, 33656, 32301, 30774, 31134, 33345, 36155, 38670, 39665, 37868, 33824, 29504, 26765, 26938], [35037, 33062, 33000, 33291, 34135, 35196, 34542, 31275, 26809, 23695, 23601, 26308, 30830, 36418, 41215, 42000, 38444, 34745, 33558, 33294, 33116, 33789, 34265, 32710, 29130, 25346, 23696, 25154, 28628, 33014, 38127, 41891, 40940, 36596, 33728, 33230, 33096, 33402, 34268, 34155, 32138, 28481, 24810, 23663, 25634, 29361, 34229, 39497, 42172, 39929, 35392, 33055, 33190, 33599, 34085, 34780, 34182, 31267, 26948, 23529, 23234, 26280, 30962, 35883, 40176, 41778, 39385, 35701, 33994, 33563, 32922, 32990, 33954, 33581, 30348, 25767, 23013, 23903, 27702, 32670, 37545, 40872, 40886, 38170, 35809, 35008, 34404, 33921, 34397, 34230, 30466, 23444, 18354, 19832, 26523, 34162, 40731, 45289, 45706, 41223], [31512, 31972, 32443, 33401, 32833, 31072, 31091, 33145, 34919, 35626, 35809, 35444, 34292, 32405, 30553, 30035, 30614, 30804, 30872, 31892, 32781, 32223, 31673, 33015, 35209, 36185, 36171, 36337, 36047, 33768, 29821, 27409, 28965, 31698, 31875, 30826, 30721, 31242, 32873, 35062, 35416, 35462, 37618, 38865, 36567, 32566, 28236, 24756, 25241, 29749, 33875, 35204, 35104, 34428, 33248, 32731, 33103, 33183, 33299, 34405, 35475, 35136, 33485, 31228, 29512, 29604, 31065, 32064, 32115, 32317, 32830, 32639, 31989, 32573, 34897, 37170, 37419, 35639, 33221, 31146, 29544, 28573, 28745, 30099, 31824, 33422, 35520, 37603, 36355, 30931, 27270, 30167, 35519, 37370, 35956, 34002, 32229, 30806, 30413, 31170], [31394, 31557, 30766, 30507, 30271, 30369, 32083, 34796, 36893, 38013, 38413, 37603, 34881, 30868, 27674, 27040, 28483, 30191, 31531, 32806, 33360, 32778, 32447, 33635, 35732, 37304, 37560, 36316, 33710, 30725, 28725, 28485, 30113, 32211, 32570, 31531, 31320, 32134, 32784, 33262, 34009, 34945, 35977, 36835, 36542, 34268, 30884, 28490, 28327, 30094, 32396, 33466, 32750, 31550, 31440, 32342, 32808, 32805, 34256, 37210, 38797, 37309, 33720, 29728, 27445, 28304, 30499, 31424, 31768, 32974, 33898, 33374, 32310, 31988, 33209, 35748, 37486, 36770, 34744, 32878, 30768, 28541, 28161, 30084, 31976, 32495, 32649, 32991, 33021, 32733, 32918, 34548, 37210, 38279, 35967, 32270, 30032, 29086, 28677, 29907], [33611, 32513, 31895, 32110, 32804, 33300, 33137, 32261, 31254, 30844, 31020, 31505, 32432, 33774, 34953, 35155, 34157, 32952, 32534, 32651, 32871, 33411, 33944, 33315, 31332, 29478, 29216, 30527, 32320, 33779, 35007, 35852, 35255, 33430, 32373, 32736, 33178, 33013, 32746, 32660, 32311, 31177, 29882, 29868, 31261, 32876, 34286, 35665, 36170, 34912, 32932, 31979, 32104, 32322, 32400, 32608, 32877, 32788, 31910, 30570, 30125, 31294, 33008, 34250, 35229, 35543, 34376, 32848, 32413, 32430, 32354, 32850, 33480, 33027, 31640, 30374, 29953, 30593, 31953, 33520, 35091, 36086, 35483, 33554, 32131, 32262, 32920, 32774, 32170, 32214, 32636, 32176, 30937, 30467, 31408, 32791, 33751, 34471, 34956, 34480], [27732, 29923, 31026, 31692, 34307, 35254, 31208, 24381, 20551, 23610, 30946, 37373, 41972, 45702, 45054, 37022, 28463, 27413, 30134, 30882, 32174, 35173, 35125, 29787, 23055, 20900, 25156, 32264, 38716, 43732, 46164, 42726, 33751, 27349, 28300, 30910, 31714, 33755, 35667, 32951, 26725, 22169, 22724, 27590, 33501, 38943, 44222, 46642, 41475, 31655, 27074, 29485, 31839, 32390, 33689, 33854, 30205, 24674, 22043, 24991, 31086, 36469, 40689, 44252, 43851, 36804, 29271, 28706, 31605, 32265, 33014, 35111, 34228, 28683, 22308, 20630, 25403, 32511, 37986, 42316, 45467, 43258, 34925, 28473, 29126, 31619, 32030, 33079, 34801, 33377, 27591, 21201, 20390, 26518, 34301, 40246, 45205, 47091, 41304, 31171], [65535, 65535, 47168, 21401, 26040, 65535, 65535, 41017, 0, 0, 0, 0, 0, 65535, 65535, 65535, 65535, 65535, 65535, 42980, 19702, 38306, 65535, 65535, 6632, 0, 0, 0, 0, 0, 65535, 65535, 65535, 65535, 65535, 51776, 21852, 16718, 54959, 65535, 65535, 0, 0, 0, 0, 0, 28889, 65535, 65535, 65535, 65535, 65535, 50800, 24931, 27287, 65535, 65535, 50560, 0, 0, 0, 0, 0, 65535, 65535, 65535, 65535, 65535, 65535, 40353, 16362, 31961, 65535, 65535, 18141, 0, 0, 0, 0, 0, 65535, 65535, 65535, 65535, 65535, 59440, 32621, 16601, 43691, 65535, 65535, 0, 0, 0, 0, 0, 13807, 65535, 65535, 65535]], "framecount": 20.0, "time": 1489540168229}
