{"dataframe": [[32768, 32768, 32768, 32768, 32768, 32768, 32768, 32768, 32768, 32768, 32768, 32768, 32768, 32768, 32768, 32768, 32768, 32768, 32768, 32768, 32768, 32768, 32768, 32768, 32768, 32768, 32768, 32768, 32768, 32768, 32768, 32768, 32768, 32768, 32768, 32768, 32768, 32768, 32768, 32768, 32768, 32768, 32768, 32768, 32768, 32768, 32685, 32600, 32337, 32322, 32674, 32935, 32822, 32649, 32705, 32879, 33016, 33141, 33256, 33126, 32697, 32426, 32484, 32472, 32381, 32491, 32700, 32946, 33185, 33065, 32684, 32587, 32745, 32861, 32975, 32982, 32754, 32629, 32716, 32654, 32489, 32575, 32829, 32988, 33024, 32915, 32644, 32465, 32553, 32734, 32923, 33052, 32894, 32653, 32714, 32811, 32692, 32725, 32956, 32976], [32768, 32768, 32768, 32768, 32768, 32768, 32768, 32768, 32768, 32768, 32768, 32768, 32768, 32768, 32768, 32768, 32768, 32768, 32768, 32768, 32768, 32768, 32768, 32768, 32768, 32768, 32768, 32768, 32768, 32768, 32768, 32768, 32768, 32768, 32768, 32768, 32768, 32768, 32768, 32768, 32768, 32768, 32768, 32768, 32768, 32768, 32609, 32557, 32465, 32151, 31958, 32643, 33995, 34811, 34654, 34039, 33201, 32180, 31340, 31078, 31508, 32324, 33041, 33362, 33070, 32264, 31652, 31825, 32765, 34071, 34966, 34775, 33789, 32723, 31804, 31286, 31610, 32386, 32781, 32791, 32679, 32222, 31629, 31612, 32323, 33544, 34895, 35431, 34673, 33444, 32437, 31452, 30756, 31151, 32290, 33013, 33123, 32956, 32406, 31724], [32768, 32768, 32768, 32768, 32768, 32768, 32768, 32768, 32768, 32768, 32768, 32768, 32768, 32768, 32768, 32768, 32768, 32768, 32768, 32768, 32768, 32768, 32768, 32768, 32768, 32768, 32768, 32768, 32768, 32768, 32768, 32768, 32768, 32768, 32768, 32768, 32768, 32768, 32768, 32768, 32768, 32768, 32768, 32768, 32768, 32768, 32330, 32264, 32384, 32572, 32902, 32841, 32087, 31534, 31909, 32700, 33304, 33742, 34018, 33920, 33431, 32790, 32217, 31892, 32064, 32623, 32999, 32864, 32359, 31857, 31875, 32603, 33480, 33871, 33819, 33500, 32767, 31925, 31785, 32397, 32993, 33244, 33422, 33585, 33333, 32460, 31558, 31307, 31609, 32168, 32990, 33821, 34165, 34035, 33673, 32722, 31229, 30706, 31942, 33180], [32768, 32768, 32768, 32768, 32768, 32768, 32768, 32768, 32768, 32768, 32768, 32768, 32768, 32768, 32768, 32768, 32768, 32768, 32768, 32768, 32768, 32768, 32768, 32768, 32768, 32768, 32768, 32768, 32768, 32768, 32768, 32768, 32768, 32768, 32768, 32768, 32768, 32768, 32768, 32768, 32768, 32768, 32768, 32768, 32768, 32768, 32262, 32413, 32669, 32952, 33222, 33309, 33177, 33061, 32960, 32784, 32710, 32775, 32784, 32727, 32619, 32354, 32157, 32357, 32660, 32702, 32780, 33057, 33224, 33328, 33474, 33234, 32588, 32237, 32266, 32217, 32386, 33042, 33377, 33027, 32761, 32714, 32368, 32069, 32361, 32864, 33121, 33300, 33468, 33324, 32901, 32605, 32520, 32464, 32400, 32287, 32231, 32690, 33418, 33321], [32768, 32768, 32768, 32768, 32768, 32768, 32768, 32768, 32768, 32768, 32768, 32768, 32768, 32768, 32768, 32768, 32768, 32768, 32768, 32768, 32768, 32768, 32768, 32768, 32768, 32768, 32768, 32768, 32768, 32768, 32768, 32768, 32768, 32768, 32768, 32768, 32768, 32768, 32768, 32768, 32768, 32768, 32768, 32768, 32768, 32768, 32788, 32833, 32937, 32890, 32780, 33022, 33442, 33610, 33540, 33306, 32817, 32261, 32031, 32180, 32423, 32618, 32763, 32715, 32410, 32099, 32069, 32441, 33185, 34033, 34528, 34331, 33495, 32469, 31591, 31027, 31347, 32609, 33448, 33284, 33189, 33083, 32076, 31280, 32009, 33304, 33976, 34173, 34019, 33392, 32661, 32052, 31591, 31759, 32520, 32949, 32851, 32761, 32582, 32165], [32768, 32768, 32768, 32768, 32768, 32768, 32768, 32768, 32768, 32768, 32768, 32768, 32768, 32768, 32768, 32768, 32768, 32768, 32768, 32768, 32768, 32768, 32768, 32768, 32768, 32768, 32768, 32768, 32768, 32768, 32768, 32768, 32768, 32768, 32768, 32768, 32768, 32768, 32768, 32768, 32768, 32768, 32768, 32768, 32768, 32768, 32727, 32509, 32650, 32746, 32653, 32623, 32675, 32697, 32752, 32783, 32643, 32557, 32797, 33098, 33094, 32901, 32735, 32621, 32629, 32755, 32854, 32909, 32914, 32761, 32539, 32454, 32492, 32603, 32861, 33165, 33200, 32872, 32509, 32475, 32702, 32857, 32893, 32975, 32988, 32743, 32514, 32616, 32773, 32646, 32462, 32568, 32913, 33154, 33050, 32815, 32814, 32876, 32640, 32369], [32768, 32768, 32768, 32768, 32768, 32768, 32768, 32768, 32768, 32768, 32768, 32768, 32768, 32768, 32768, 32768, 32768, 32768, 32768, 32768, 32768, 32768, 32768, 32768, 32768, 32768, 32768, 32768, 32768, 32768, 32768, 32768, 32768, 32768, 32768, 32768, 32768, 32768, 32768, 32768, 32768, 32768, 32768, 32768, 32768, 32768, 32595, 33276, 34554, 35231, 32888, 29094, 27645, 29620, 32736, 34943, 36293, 37208, 36688, 33484, 29672, 29249, 31520, 32884, 33660, 35078, 34921, 31850, 28472, 27879, 30132, 33088, 35321, 36845, 37598, 36302, 32380, 29069, 29694, 31997, 32931, 33797, 35124, 34284, 30821, 28009, 28435, 31278, 34189, 35943, 36897, 37214, 35245, 30990, 28857, 30684, 32539, 33003, 34226, 35081], [32768, 32768, 32768, 32768, 32768, 32768, 32768, 32768, 32768, 32768, 32768, 32768, 32768, 32768, 32768, 32768, 32768, 32768, 32768, 32768, 32768, 32768, 32768, 32768, 32768, 32768, 32768, 32768, 32768, 32768, 32768, 32768, 32768, 32768, 32768, 32768, 32768, 32768, 32768, 32768, 32768, 32768, 32768, 32768, 32768, 32768, 32767, 32767, 32767, 32767, 32767, 32767, 32768, 32768, 32767, 32767, 32767, 32767, 32767, 32767, 32768, 32767, 32767, 32767, 32767, 32767, 32767, 32767, 32767, 32767, 32767, 32768, 32768, 32768, 32768, 32767, 32767, 32767, 32767, 32767, 32767, 32767, 32767, 32767, 32767, 32767, 32767, 32768, 32768, 32767, 32767, 32767, 32767, 32767, 32767, 32768, 32767, 32767, 32767, 32767]], "framecount": 0.0, "time": 1489540498624}
{"dataframe": [[32894, 32930, 32680, 32107, 31947, 32400, 32986, 33459, 33573, 33122, 32625, 32535, 32502, 32425, 32672, 33017, 33036, 32956, 32877, 32501, 32170, 32400, 32731, 32803, 33088, 33466, 33286, 32810, 32569, 32420, 32331, 32538, 32841, 32957, 32918, 32732, 32491, 32521, 32877, 33137, 32949, 32587, 32593, 32929, 33135, 33081, 32784, 32320, 32219, 32715, 33110, 32978, 32740, 32613, 32507, 32547, 32733, 32926, 33123, 33132, 32836, 32641, 32679, 32624, 32599, 32864, 33081, 32884, 32498, 32360, 32525, 32726, 32809, 32881, 33059, 33215, 33080, 32664, 32425, 32616, 32750, 32586, 32798, 33389, 33082, 31892, 31613, 32512, 33125, 33270, 33488, 33328, 32855, 32890, 33010, 32499, 32073, 32292, 32527, 32590], [31637, 32286, 33390, 34708, 35571, 35157, 33693, 32202, 31150, 30675, 31177, 32252, 32787, 32714, 32573, 32293, 31982, 32259, 33253, 34358, 34861, 34605, 33984, 33169, 31976, 30814, 30763, 31927, 32911, 32965, 32769, 32578, 32085, 31735, 32210, 33439, 34697, 35161, 34659, 33679, 32571, 31441, 30718, 30964, 31965, 32841, 33190, 33151, 32730, 32143, 31983, 32536, 33545, 34411, 34592, 34164, 33493, 32518, 31313, 30709, 31284, 32439, 33229, 33402, 33140, 32591, 32002, 31855, 32499, 33605, 34377, 34432, 33970, 33192, 32157, 31262, 31279, 32248, 33030, 32988, 32752, 32583, 32078, 31603, 31994, 33185, 34306, 34678, 34357, 33796, 33088, 32031, 31069, 31131, 32132, 32898, 32989, 32935, 32712, 32017], [33098, 34035, 37759, 39109, 32971, 25461, 24808, 27921, 29615, 32253, 36619, 38626, 37940, 37030, 35455, 32978, 31403, 30658, 29569, 28964, 29600, 30581, 31643, 33239, 34801, 35606, 35676, 35039, 33914, 32942, 32327, 31909, 31756, 31819, 31774, 31585, 31618, 32028, 32586, 33197, 33825, 34097, 33791, 33204, 32699, 32308, 32065, 32705, 34417, 35059, 33103, 30779, 30451, 31256, 31707, 31848, 32126, 32641, 33347, 34502, 36812, 39069, 37353, 30901, 25077, 24417, 27819, 32189, 35570, 36986, 36671, 35580, 34205, 32931, 32261, 32001, 31576, 31088, 31046, 31479, 32118, 32938, 33782, 34167, 33930, 33420, 32957, 32543, 32178, 32135, 32487, 32804, 32840, 32790, 32708, 32562, 32577, 32814, 33037, 33259], [32390, 31635, 31530, 32522, 34449, 35331, 34496, 33837, 33421, 31660, 29780, 29904, 31194, 32119, 32799, 33474, 33928, 34244, 34489, 34445, 33938, 33028, 32040, 31409, 31405, 31836, 32077, 31995, 32250, 32972, 33393, 33242, 33077, 33192, 33455, 33671, 33490, 32907, 32475, 32323, 32172, 32010, 31873, 31904, 32379, 33039, 33240, 32824, 32663, 33872, 35476, 34934, 32474, 31071, 31289, 31212, 30818, 31309, 32280, 33353, 34801, 35151, 33553, 32837, 34268, 34565, 32532, 30826, 30304, 30191, 31080, 32778, 33706, 33865, 34123, 34144, 33775, 33520, 33119, 32334, 31816, 31783, 31796, 31974, 32571, 32965, 32707, 32605, 33318, 34062, 33892, 33118, 32619, 32588, 32605, 32395, 32084, 31978, 32108, 32139], [32039, 32521, 33394, 34380, 34870, 34102, 32472, 31380, 31314, 31651, 32229, 33105, 33566, 33211, 32626, 32147, 31735, 31926, 33025, 34120, 34339, 33900, 33321, 32812, 32320, 31772, 31517, 31946, 32668, 33012, 32947, 32734, 32405, 32116, 32341, 33260, 34288, 34650, 34141, 33117, 32093, 31386, 31050, 31330, 32306, 33178, 33391, 33508, 33584, 32884, 31938, 32025, 32876, 33441, 33625, 33607, 33277, 32726, 32037, 31465, 31780, 32910, 33534, 33139, 32513, 32194, 32168, 32440, 32965, 33559, 33940, 33830, 33317, 32742, 32162, 31639, 31703, 32515, 33181, 33027, 32670, 32686, 32613, 32254, 32295, 32956, 33610, 33893, 33831, 33340, 32520, 31761, 31547, 32230, 33241, 33486, 33006, 32593, 32226, 31642], [32515, 32891, 33073, 33055, 32916, 32601, 32349, 32463, 32734, 32864, 32916, 32891, 32754, 32779, 32982, 32942, 32727, 32801, 32932, 32661, 32392, 32550, 32689, 32588, 32672, 32922, 32994, 32972, 32941, 32810, 32745, 32855, 32900, 32826, 32774, 32634, 32387, 32286, 32408, 32695, 33059, 33256, 33193, 33051, 32898, 32660, 32377, 32279, 32566, 33018, 33186, 32981, 32691, 32592, 32690, 32741, 32620, 32540, 32668, 32835, 32891, 32954, 33083, 33065, 32815, 32586, 32514, 32497, 32568, 32793, 32974, 32909, 32740, 32685, 32694, 32726, 32844, 32881, 32786, 32830, 32902, 32694, 32551, 32778, 32923, 32756, 32677, 32760, 32777, 32823, 32870, 32643, 32444, 32687, 32914, 32764, 32727, 32912, 32902, 32881], [33018, 29479, 28014, 29680, 32614, 34962, 36397, 37142, 36579, 33549, 29650, 28892, 31108, 32653, 33600, 35388, 35641, 32380, 28387, 27620, 30221, 33233, 35010, 36296, 37347, 36376, 32491, 29121, 29703, 32009, 33129, 34179, 35365, 34287, 30761, 27872, 28197, 31011, 33844, 35712, 37075, 37542, 35477, 31262, 28928, 30333, 32254, 33040, 34334, 35442, 33717, 29691, 27312, 28923, 32409, 34862, 36187, 37175, 36932, 34035, 30009, 28842, 30951, 32999, 34091, 35126, 34856, 32023, 28483, 27594, 30036, 33150, 35086, 36502, 37609, 36613, 32699, 29211, 29670, 31996, 32944, 33651, 35010, 34481, 31054, 27902, 28212, 31192, 34003, 35664, 36905, 37503, 35638, 31310, 28626, 29980, 32198, 33170, 34476, 35667], [32767, 32767, 32767, 32767, 32767, 32767, 32768, 32768, 32768, 32768, 32767, 32767, 32767, 32767, 32767, 32767, 32767, 32767, 32767, 32767, 32767, 32767, 32768, 32768, 32767, 32767, 32767, 32767, 32767, 32767, 32768, 32767, 32767, 32767, 32767, 32767, 32767, 32767, 32767, 32767, 32767, 32768, 32768, 32768, 32768, 32767, 32767, 32767, 32767, 32767, 32767, 32767, 32767, 32767, 32767, 32767, 32767, 32768, 32768, 32767, 32767, 32767, 32767, 32767, 32767, 32768, 32767, 32767, 32767, 32767, 32767, 32767, 32767, 32767, 32767, 32767, 32768, 32768, 32768, 32768, 32767, 32767, 32767, 32767, 32767, 32767, 32767, 32767, 32767, 32767, 32767, 32767, 32768, 32768, 32767, 32767, 32767, 32767, 32767, 32767]], "framecount": 1.0, "time": 1489540498843}
{"dataframe": [[32877, 33025, 32652, 32521, 33098, 33463, 33148, 32914, 32890, 32530, 32155, 32276, 32586, 32834, 33121, 33205, 32822, 32321, 32184, 32385, 32655, 32900, 33185, 33519, 33673, 33421, 32959, 32572, 32183, 31792, 31722, 32093, 32684, 33222, 33454, 33324, 33070, 32912, 32836, 32734, 32622, 32665, 32827, 32755, 32435, 32332, 32576, 32858, 33066, 33210, 33128, 32808, 32507, 32388, 32431, 32603, 32835, 32975, 32971, 32942, 32923, 32854, 32833, 32919, 32889, 32609, 32304, 32288, 32524, 32661, 32679, 32873, 33151, 33220, 33133, 33097, 33054, 32701, 32186, 32205, 32680, 32755, 32527, 32740, 33101, 32993, 32776, 32812, 32773, 32579, 32543, 32755, 33007, 33060, 32932, 32819, 32717, 32587, 32639, 32837], [31536, 32196, 33683, 34636, 34369, 33758, 33483, 32843, 31729, 31374, 32152, 32965, 33004, 32539, 32116, 31810, 31429, 31347, 32421, 34364, 35562, 35439, 34832, 33834, 32068, 30430, 30130, 30972, 31983, 32757, 33373, 33602, 33103, 32243, 32042, 33000, 34223, 34450, 33797, 33193, 32722, 31995, 31394, 31734, 32852, 33504, 33072, 32286, 31803, 31478, 31373, 32067, 33517, 34799, 35224, 34792, 33853, 32890, 31993, 31132, 31004, 31829, 32477, 32431, 32391, 32503, 32329, 32221, 32948, 34223, 34891, 34584, 33903, 33160, 32156, 31044, 30740, 31830, 33120, 33173, 32637, 32498, 32230, 31743, 32088, 33329, 34345, 34596, 34348, 33822, 33048, 32068, 31177, 31069, 31983, 32952, 33070, 32654, 32225, 31779], [33522, 33324, 32487, 31874, 32009, 32290, 32340, 32588, 33347, 34069, 33719, 32404, 31635, 32005, 32592, 32959, 33482, 34005, 33820, 32834, 31851, 31530, 31738, 32123, 32585, 33109, 33488, 33447, 33109, 32817, 32664, 32808, 33308, 33569, 33149, 32431, 31878, 31670, 31982, 32536, 32646, 32487, 32798, 33241, 33220, 33320, 33781, 33703, 33145, 33061, 33102, 32377, 31384, 31040, 31306, 31911, 32786, 33543, 33879, 34014, 33927, 33324, 32584, 32350, 32509, 32687, 32891, 32984, 32602, 31945, 31615, 31788, 32291, 32906, 33453, 33945, 34134, 33564, 32683, 32341, 32369, 32370, 32628, 33056, 32996, 32454, 32046, 31963, 32071, 32467, 33134, 33687, 33852, 33615, 33078, 32515, 32238, 32313, 32628, 33027], [32159, 32733, 33666, 34183, 34304, 34416, 34306, 33344, 31103, 28777, 28888, 31504, 33804, 34589, 34913, 34991, 34394, 33393, 32296, 31393, 31161, 31414, 31746, 32422, 33366, 33822, 33715, 33504, 33129, 32578, 32224, 32101, 32284, 33091, 33882, 33381, 31792, 30969, 31887, 33299, 33752, 33461, 33234, 33219, 33222, 32994, 32502, 32188, 32192, 32071, 31880, 32208, 33001, 33586, 33702, 33548, 33177, 32695, 32451, 32381, 32242, 32403, 33043, 33382, 32950, 32389, 32238, 32280, 32365, 32616, 32991, 33377, 33664, 33641, 33223, 32616, 32200, 32223, 32452, 32482, 32349, 32292, 32324, 32479, 32878, 33458, 33951, 33992, 33454, 32712, 32202, 32006, 32015, 32144, 32369, 32645, 32870, 33049, 33205, 33133], [31419, 32185, 33533, 34463, 34540, 34103, 33494, 32671, 31667, 31051, 31434, 32526, 33354, 33380, 32844, 32243, 31923, 32130, 32866, 33662, 34059, 33980, 33480, 32802, 32266, 31918, 31944, 32491, 32910, 32777, 32653, 32625, 32192, 31731, 32043, 33103, 34182, 34593, 34245, 33528, 32747, 31985, 31384, 31317, 31977, 32777, 33020, 32879, 32745, 32524, 32344, 32713, 33517, 34065, 34082, 33691, 32982, 32170, 31546, 31337, 31777, 32683, 33375, 33541, 33296, 32657, 31867, 31598, 32235, 33294, 33978, 34170, 34135, 33703, 32689, 31568, 31157, 31721, 32559, 32918, 32874, 32724, 32409, 32044, 32210, 33174, 34257, 34623, 34217, 33407, 32474, 31670, 31221, 31354, 32120, 32953, 33188, 32976, 32820, 32650], [33058, 33018, 32740, 32624, 32552, 32358, 32302, 32490, 32814, 33147, 33189, 32931, 32838, 32898, 32727, 32574, 32758, 32922, 32805, 32658, 32653, 32719, 32722, 32613, 32541, 32623, 32757, 32884, 33039, 33142, 33077, 32873, 32653, 32569, 32664, 32717, 32577, 32503, 32670, 32810, 32800, 32899, 33070, 32937, 32605, 32542, 32718, 32825, 32864, 32881, 32861, 32912, 32934, 32718, 32479, 32484, 32569, 32594, 32671, 32816, 32915, 32943, 32960, 33000, 32997, 32902, 32789, 32705, 32619, 32555, 32508, 32446, 32485, 32659, 32802, 32981, 33252, 33208, 32811, 32703, 32950, 32911, 32561, 32435, 32533, 32591, 32712, 32841, 32716, 32587, 32782, 33026, 33061, 33004, 32862, 32662, 32617, 32667, 32664, 32796], [34089, 30095, 27468, 28613, 31809, 34323, 35808, 37040, 37285, 34702, 30428, 28979, 31105, 32920, 33560, 34713, 34979, 32222, 28340, 27402, 30115, 33334, 35164, 36522, 37687, 36807, 32857, 29034, 29218, 31637, 32846, 33888, 35560, 34975, 31201, 27751, 27764, 30546, 33665, 35855, 37144, 37617, 36018, 31740, 28534, 29666, 32169, 33217, 34403, 35591, 33929, 29835, 27363, 28715, 31979, 34529, 36012, 37209, 37409, 34663, 30188, 28741, 30962, 32699, 33389, 34935, 35332, 32355, 28567, 27705, 29936, 32910, 35093, 36424, 37159, 36569, 33391, 29568, 29200, 31574, 33051, 33957, 35308, 34794, 31337, 27867, 27574, 30349, 33679, 35847, 37056, 37579, 36025, 31867, 28789, 29825, 32202, 33300, 34494, 35532], [32768, 32767, 32767, 32767, 32767, 32767, 32767, 32767, 32767, 32767, 32767, 32768, 32768, 32768, 32768, 32767, 32767, 32767, 32767, 32767, 32767, 32767, 32767, 32767, 32767, 32767, 32767, 32768, 32768, 32767, 32767, 32767, 32767, 32767, 32767, 32768, 32767, 32767, 32767, 32767, 32767, 32767, 32767, 32767, 32767, 32767, 32768, 32768, 32768, 32768, 32767, 32767, 32767, 32767, 32767, 32767, 32767, 32767, 32767, 32767, 32767, 32767, 32768, 32768, 32767, 32767, 32767, 32767, 32767, 32767, 32768, 32767, 32767, 32767, 32767, 32767, 32767, 32767, 32767, 32767, 32767, 32768, 32768, 32768, 32768, 32767, 32767, 32767, 32767, 32767, 32767, 32767, 32767, 32767, 32767, 32767, 32767, 32768, 32768, 32767]], "framecount": 2.0, "time": 1489540498952}
{"dataframe": [[32759, 32463, 32481, 32776, 32878, 32839, 32896, 32924, 32957, 33129, 33011, 32449, 32226, 32580, 32734, 32578, 32708, 33106, 33317, 33082, 32519, 32266, 32594, 32806, 32638, 32710, 33030, 33062, 32946, 32914, 32691, 32388, 32486, 32903, 33146, 32977, 32564, 32314, 32436, 32707, 32862, 32910, 32965, 33034, 33010, 32872, 32743, 32652, 32587, 32628, 32749, 32811, 32766, 32676, 32589, 32617, 32836, 32977, 32827, 32715, 32825, 32858, 32841, 32949, 32901, 32708, 32773, 32842, 32550, 32363, 32530, 32570, 32525, 32817, 33145, 33173, 33162, 33100, 32805, 32598, 32626, 32551, 32420, 32574, 32854, 32923, 32821, 32679, 32565, 32613, 32833, 33036, 33085, 33013, 32904, 32741, 32512, 32402, 32534, 32731], [31637, 32512, 34178, 35276, 34994, 33912, 32870, 32039, 31293, 30936, 31548, 32824, 33614, 33500, 32962, 32228, 31415, 31196, 32167, 33806, 34883, 34875, 34237, 33417, 32457, 31492, 31095, 31686, 32703, 33164, 32887, 32370, 31905, 31543, 31725, 32942, 34547, 35221, 34761, 33914, 32973, 31907, 31119, 31172, 32016, 32847, 33017, 32719, 32320, 31809, 31497, 32145, 33661, 34841, 34969, 34448, 33749, 32878, 31851, 31095, 31220, 32092, 32670, 32552, 32381, 32278, 31904, 31849, 32871, 34386, 35218, 35011, 34152, 33120, 32121, 31136, 30662, 31365, 32568, 33059, 32963, 32796, 32401, 31948, 32074, 32978, 34151, 34746, 34502, 33916, 33148, 31970, 30928, 31037, 32121, 32895, 32912, 32820, 32705, 32151], [33156, 32695, 32087, 32072, 32476, 32731, 32886, 33130, 33394, 33522, 33139, 32199, 31537, 31797, 32627, 33549, 34280, 34243, 33304, 32320, 31790, 31450, 31475, 32091, 32828, 33377, 33693, 33492, 32951, 32710, 32815, 32900, 32972, 33208, 33360, 32856, 31815, 31338, 31882, 32503, 32639, 32913, 33460, 33493, 32993, 32775, 32824, 32761, 33153, 34050, 34167, 33150, 32074, 31518, 31449, 31645, 31287, 30425, 30924, 33350, 35519, 36008, 35585, 34779, 33580, 32578, 31981, 31288, 30595, 30370, 30575, 31210, 32419, 33733, 34567, 35002, 34987, 34151, 33032, 32437, 32044, 31658, 31924, 32554, 32554, 32152, 32098, 32334, 32739, 33337, 33493, 32943, 32634, 32812, 32497, 32254, 34033, 36426, 35227, 31140], [32790, 32566, 32574, 32627, 33022, 33805, 33922, 32943, 32153, 32140, 31761, 31056, 31691, 33422, 34138, 33539, 33080, 33226, 33302, 32914, 32391, 32267, 32499, 32599, 32478, 32413, 32526, 32834, 33198, 33262, 32941, 32517, 32237, 32356, 33032, 33959, 34436, 33643, 31564, 30041, 30798, 32623, 33441, 33609, 34063, 34158, 33636, 33192, 32542, 31340, 30670, 31323, 32688, 33869, 34208, 33714, 33255, 33063, 32582, 32140, 32288, 32516, 32466, 32531, 32669, 32585, 32552, 32753, 32943, 33174, 33520, 33525, 33036, 32606, 32465, 32314, 32154, 32226, 32530, 32918, 33213, 33269, 33066, 32652, 32291, 32443, 33019, 33355, 33261, 32934, 32364, 31904, 32102, 32628, 32786, 32649, 32791, 33435, 34010, 33707], [32277, 32299, 33268, 34335, 34367, 33617, 32836, 32117, 31558, 31535, 31965, 32451, 32974, 33487, 33476, 32803, 32069, 31820, 32258, 33205, 33966, 34109, 33871, 33302, 32288, 31411, 31471, 32349, 33082, 33086, 32791, 32651, 32358, 31890, 32068, 33101, 34022, 34238, 34021, 33510, 32661, 31806, 31412, 31691, 32462, 33153, 33287, 32918, 32430, 32106, 32025, 32358, 33254, 34174, 34281, 33658, 33017, 32480, 31884, 31651, 32107, 32715, 32934, 32938, 32885, 32533, 31946, 31781, 32517, 33684, 34363, 34283, 33758, 33032, 32246, 31607, 31433, 31940, 32709, 33051, 32991, 32925, 32673, 32159, 32181, 33042, 33760, 33814, 33713, 33482, 32742, 31864, 31498, 31775, 32446, 33031, 33238, 33306, 33231, 32549], [33023, 32901, 32498, 32355, 32550, 32787, 32954, 33034, 33003, 32918, 32794, 32646, 32567, 32534, 32557, 32778, 33038, 33096, 33077, 32940, 32514, 32279, 32571, 32778, 32634, 32687, 32954, 32958, 32789, 32778, 32858, 32896, 32914, 32904, 32782, 32529, 32389, 32594, 32880, 32901, 32799, 32745, 32675, 32702, 32875, 32890, 32729, 32737, 32885, 32906, 32876, 32892, 32750, 32466, 32420, 32678, 32856, 32774, 32717, 32880, 32981, 32819, 32690, 32743, 32758, 32767, 32930, 33027, 32854, 32595, 32497, 32568, 32629, 32605, 32677, 32911, 33063, 33028, 32962, 32867, 32647, 32469, 32523, 32738, 32952, 33006, 32832, 32609, 32520, 32618, 32872, 33020, 32892, 32764, 32745, 32596, 32478, 32702, 33035, 33115], [33801, 29712, 27065, 28288, 31806, 34685, 36252, 37450, 37719, 34993, 30322, 28572, 30652, 32398, 33099, 34801, 35650, 32987, 28809, 27266, 29392, 32719, 35098, 36579, 37641, 37065, 33377, 29223, 28978, 31404, 32841, 33918, 35450, 34984, 31555, 27974, 27472, 30242, 33655, 35743, 36966, 37773, 36345, 31893, 28498, 29554, 32101, 33214, 34337, 35469, 33997, 30151, 27560, 28516, 31592, 34367, 36186, 37376, 37443, 34892, 30443, 28483, 30461, 32540, 33414, 34876, 35538, 33017, 29056, 27421, 29200, 32378, 35010, 36762, 37704, 36918, 33353, 29341, 29078, 31554, 32830, 33517, 35111, 35089, 31833, 28196, 27638, 30250, 33538, 35723, 37026, 37718, 36186, 31761, 28435, 29568, 32120, 33111, 34246, 35717], [32767, 32767, 32767, 32767, 32767, 32768, 32767, 32767, 32767, 32767, 32767, 32767, 32767, 32767, 32767, 32767, 32768, 32768, 32768, 32768, 32767, 32767, 32767, 32767, 32767, 32767, 32767, 32767, 32767, 32767, 32767, 32767, 32768, 32768, 32767, 32767, 32767, 32767, 32767, 32767, 32768, 32767, 32767, 32767, 32767, 32767, 32767, 32767, 32767, 32767, 32767, 32768, 32768, 32768, 32768, 32767, 32767, 32767, 32767, 32767, 32767, 32767, 32767, 32767, 32767, 32767, 32767, 32768, 32768, 32767, 32767, 32767, 32767, 32767, 32767, 32768, 32767, 32767, 32767, 32767, 32767, 32767, 32767, 32767, 32767, 32767, 32768, 32768, 32768, 32768, 32767, 32767, 32767, 32767, 32767, 32767, 32767, 32767, 32767, 32767]], "framecount": 3.0, "time": 1489540499030}
{"dataframe": [[32872, 33013, 33040, 32824, 32526, 32441, 32669, 32924, 32926, 32866, 32876, 32707, 32510, 32678, 32917, 32897, 32934, 33025, 32751, 32440, 32613, 32800, 32560, 32435, 32722, 32968, 32973, 32911, 32890, 32954, 32990, 32831, 32617, 32579, 32700, 32797, 32683, 32398, 32311, 32566, 32852, 33023, 33223, 33354, 33196, 32847, 32545, 32364, 32368, 32606, 32839, 32804, 32637, 32587, 32652, 32787, 32981, 33085, 33011, 32910, 32861, 32739, 32576, 32573, 32687, 32725, 32743, 32813, 32781, 32676, 32650, 32577, 32534, 32842, 33234, 33246, 33041, 32858, 32654, 32534, 32527, 32445, 32474, 32823, 33044, 32829, 32639, 32769, 32864, 32716, 32649, 32888, 33138, 33064, 32770, 32577, 32595, 32682, 32692, 32671], [31638, 32063, 33317, 34455, 34800, 34423, 33775, 32956, 31850, 31040, 31322, 32246, 32724, 32686, 32599, 32363, 31918, 31866, 32660, 33823, 34537, 34645, 34467, 34011, 32994, 31541, 30598, 31006, 32115, 32635, 32575, 32575, 32457, 32099, 32237, 33234, 34318, 34749, 34633, 34182, 33286, 32053, 31012, 30780, 31472, 32399, 32873, 32920, 32662, 32163, 31972, 32580, 33673, 34569, 34840, 34400, 33469, 32407, 31456, 30909, 31243, 32288, 33053, 33142, 32951, 32486, 31781, 31681, 32663, 33960, 34670, 34638, 34068, 33269, 32486, 31608, 30897, 31257, 32515, 33248, 33059, 32728, 32366, 31723, 31581, 32776, 34407, 34981, 34570, 33998, 33230, 32043, 30955, 30812, 31797, 32922, 33212, 32924, 32589, 32151], [29434, 30716, 31395, 31379, 32412, 33525, 33798, 33973, 33977, 33487, 33226, 33284, 32955, 32446, 32362, 32502, 32493, 32417, 32305, 32047, 31807, 31874, 32263, 32883, 33753, 34615, 34701, 33701, 32544, 32104, 32048, 31952, 32118, 32667, 33032, 32816, 32532, 32688, 32764, 32313, 32048, 32613, 33450, 33702, 33359, 33004, 32918, 32942, 32953, 32953, 32859, 32561, 32077, 31644, 31610, 32040, 32635, 33196, 33757, 34108, 33818, 33073, 32588, 32444, 32281, 32373, 32944, 33267, 32821, 32167, 31856, 31834, 32140, 32821, 33464, 33791, 33841, 33429, 32692, 32301, 32361, 32512, 32788, 33172, 33204, 32701, 32099, 31889, 32061, 32292, 32551, 33116, 33835, 33985, 33365, 32716, 32482, 32401, 32495, 32909], [32921, 32831, 33230, 32774, 31258, 30083, 30598, 32473, 33992, 34252, 34077, 34164, 34057, 33418, 32601, 31950, 31561, 31435, 31518, 31895, 32681, 33550, 34012, 34026, 33630, 32798, 32070, 32118, 32685, 33046, 32976, 32657, 32343, 32221, 32278, 32471, 32813, 33182, 33412, 33413, 33139, 32808, 32727, 32721, 32546, 32449, 32545, 32582, 32556, 32573, 32505, 32465, 32775, 33217, 33358, 33319, 33287, 33033, 32565, 32301, 32370, 32538, 32651, 32702, 32710, 32639, 32514, 32491, 32658, 32988, 33359, 33479, 33241, 32969, 32826, 32558, 32216, 32230, 32537, 32691, 32676, 32675, 32616, 32581, 32792, 33107, 33260, 33221, 33040, 32843, 32783, 32813, 32770, 32567, 32321, 32301, 32506, 32671, 32758, 32827], [31615, 31643, 32790, 33856, 34176, 34017, 33476, 32660, 31943, 31506, 31677, 32551, 33184, 33041, 32821, 32649, 32054, 31703, 32473, 33736, 34350, 34170, 33791, 33448, 32686, 31415, 30701, 31379, 32665, 33381, 33429, 33128, 32564, 32046, 32088, 32817, 33719, 34107, 33869, 33379, 32841, 32239, 31755, 31729, 32157, 32627, 32922, 33098, 32993, 32455, 31930, 32132, 33080, 33944, 34107, 33823, 33467, 32895, 31983, 31288, 31527, 32449, 33092, 33127, 32931, 32645, 32196, 31941, 32442, 33503, 34176, 34083, 33756, 33387, 32584, 31527, 31131, 31755, 32656, 33099, 33155, 33007, 32555, 32030, 31999, 32722, 33824, 34384, 33958, 33304, 32955, 32481, 31904, 31731, 31894, 32215, 32689, 32957, 32822, 32615], [32982, 32790, 32593, 32477, 32491, 32583, 32740, 32912, 32979, 32965, 32938, 32853, 32741, 32650, 32550, 32554, 32793, 33053, 33039, 32808, 32638, 32622, 32568, 32443, 32548, 32897, 33094, 33029, 32918, 32812, 32695, 32683, 32764, 32791, 32759, 32734, 32733, 32759, 32754, 32684, 32665, 32723, 32734, 32739, 32836, 32901, 32809, 32710, 32807, 32993, 33009, 32833, 32632, 32560, 32648, 32696, 32588, 32562, 32729, 32862, 32890, 32933, 32914, 32775, 32740, 32855, 32910, 32907, 32907, 32753, 32448, 32293, 32448, 32697, 32814, 32901, 33043, 33054, 32914, 32814, 32732, 32664, 32780, 32925, 32782, 32560, 32593, 32673, 32639, 32745, 32883, 32739, 32639, 32882, 33066, 32908, 32687, 32637, 32688, 32755], [34563, 30585, 27510, 28077, 31124, 34052, 35967, 37307, 37656, 35293, 30779, 28608, 30429, 32418, 33095, 34470, 35592, 33638, 29496, 27292, 29038, 32421, 34759, 36127, 37262, 37065, 33979, 29917, 29109, 31274, 32803, 33732, 35186, 34937, 31661, 28083, 27496, 30156, 33596, 35715, 36795, 37593, 36523, 32379, 28830, 29472, 31722, 32824, 34158, 35511, 34281, 30665, 27892, 28363, 31308, 34190, 35854, 36953, 37398, 35280, 30807, 28547, 30483, 32715, 33350, 34449, 35473, 33617, 29510, 27228, 28874, 32233, 34692, 36179, 37312, 37202, 34180, 29863, 28932, 31407, 32992, 33527, 34916, 35078, 31958, 28190, 27582, 30203, 33301, 35299, 36585, 37479, 36636, 32819, 29042, 29388, 31886, 32959, 33892, 35434], [32767, 32767, 32768, 32768, 32767, 32767, 32767, 32767, 32767, 32767, 32768, 32767, 32767, 32767, 32767, 32767, 32767, 32767, 32767, 32767, 32767, 32768, 32768, 32768, 32768, 32767, 32767, 32767, 32767, 32767, 32767, 32767, 32767, 32767, 32767, 32767, 32767, 32768, 32768, 32767, 32767, 32767, 32767, 32767, 32767, 32768, 32767, 32767, 32767, 32767, 32767, 32767, 32767, 32767, 32767, 32767, 32768, 32768, 32768, 32768, 32767, 32767, 32767, 32767, 32767, 32767, 32767, 32767, 32767, 32767, 32767, 32767, 32768, 32768, 32767, 32767, 32767, 32767, 32767, 32767, 32768, 32767, 32767, 32767, 32767, 32767, 32767, 32767, 32767, 32767, 32767, 32768, 32768, 32768, 32768, 32767, 32767, 32767, 32767, 32767]], "framecount": 4.0, "time": 1489540499155}
{"dataframe": [[32702, 32758, 32811, 32798, 32693, 32704, 32862, 32841, 32716, 32893, 33129, 32910, 32551, 32573, 32695, 32603, 32640, 32922, 33012, 32840, 32708, 32573, 32415, 32631, 33131, 33219, 32882, 32684, 32621, 32515, 32605, 32878, 32992, 32928, 32844, 32704, 32536, 32505, 32599, 32734, 32920, 33006, 32862, 32754, 32883, 32961, 32766, 32565, 32612, 32791, 32958, 33019, 32800, 32443, 32324, 32441, 32596, 32822, 33104, 33193, 33015, 32831, 32833, 32887, 32790, 32592, 32504, 32616, 32796, 32800, 32588, 32475, 32631, 32808, 32882, 33032, 33162, 33011, 32764, 32666, 32624, 32664, 32828, 32856, 32694, 32561, 32505, 32598, 32809, 32803, 32719, 32983, 33222, 32989, 32677, 32633, 32663, 32668, 32740, 32802], [31799, 32129, 33183, 34295, 34823, 34546, 33731, 32821, 31830, 30927, 31052, 32267, 33119, 33035, 32778, 32454, 31855, 31677, 32478, 33720, 34577, 34732, 34333, 33620, 32610, 31415, 30798, 31386, 32467, 33020, 33055, 32817, 32238, 31681, 31808, 32798, 34146, 34963, 34767, 34013, 33207, 32131, 30931, 30753, 31873, 32910, 33074, 32956, 32751, 32171, 31672, 32007, 33173, 34391, 34830, 34436, 33734, 32862, 31777, 31070, 31350, 32228, 32885, 33058, 32815, 32253, 31756, 31777, 32479, 33697, 34770, 34926, 34213, 33314, 32474, 31538, 30949, 31455, 32618, 33155, 32883, 32540, 32233, 31825, 31874, 32831, 34095, 34753, 34653, 34084, 33162, 32055, 31222, 31164, 31928, 32801, 33033, 32748, 32407, 32046], [33206, 32992, 32469, 31983, 31757, 31940, 32449, 33102, 33744, 34020, 33599, 32807, 32341, 32339, 32486, 32734, 33100, 33304, 33045, 32348, 31710, 31686, 32145, 32645, 33219, 33828, 33899, 33305, 32716, 32498, 32417, 32472, 32875, 33293, 33191, 32614, 31982, 31654, 31835, 32399, 32996, 33503, 33895, 33846, 33185, 32434, 32199, 32457, 32788, 32942, 33026, 33040, 32626, 31912, 31667, 32037, 32516, 33079, 33817, 34127, 33573, 32729, 32315, 32301, 32380, 32597, 33052, 33401, 33136, 32380, 31810, 31741, 32060, 32683, 33350, 33699, 33685, 33376, 32842, 32405, 32346, 32563, 32868, 33194, 33241, 32702, 32006, 31775, 31912, 32238, 32906, 33617, 33846, 33617, 33158, 32633, 32338, 32373, 32525, 32754], [32786, 32769, 32975, 33152, 33101, 33046, 32987, 32749, 32482, 32376, 32451, 32679, 32877, 32870, 32749, 32654, 32571, 32530, 32652, 32930, 33203, 33278, 33109, 32889, 32720, 32490, 32339, 32530, 32849, 32888, 32695, 32550, 32492, 32493, 32711, 33088, 33230, 33078, 32984, 33018, 32924, 32631, 32374, 32392, 32612, 32732, 32689, 32697, 32754, 32715, 32676, 32774, 32975, 33190, 33279, 33145, 32865, 32543, 32256, 32193, 32408, 32629, 32760, 32992, 33196, 33030, 32670, 32566, 32683, 32765, 32866, 33030, 33082, 32942, 32708, 32495, 32387, 32470, 32722, 32944, 32979, 32874, 32724, 32559, 32464, 32603, 32955, 33185, 33095, 32955, 32916, 32708, 32416, 32430, 32586, 32678, 32936, 33140, 32904, 32676], [32504, 32559, 33042, 33695, 33940, 33792, 33414, 32696, 31905, 31547, 31752, 32380, 33051, 33254, 32945, 32488, 32088, 31948, 32468, 33497, 34148, 34070, 33775, 33425, 32640, 31583, 31157, 31799, 32706, 33001, 32905, 32848, 32649, 32265, 32194, 32788, 33703, 34223, 34054, 33516, 32882, 32115, 31458, 31511, 32262, 32835, 32788, 32668, 32764, 32638, 32329, 32611, 33534, 34115, 33929, 33524, 33114, 32425, 31628, 31303, 31755, 32615, 33168, 33240, 33139, 32872, 32387, 32051, 32276, 33076, 33929, 34176, 33760, 33116, 32476, 31820, 31406, 31731, 32633, 33231, 33194, 32908, 32533, 32130, 32109, 32683, 33519, 34132, 34188, 33639, 32805, 32055, 31534, 31477, 32096, 32925, 33245, 33106, 32937, 32663], [32869, 32995, 32952, 32710, 32536, 32592, 32710, 32733, 32694, 32636, 32648, 32820, 32981, 32929, 32812, 32842, 32940, 32955, 32896, 32752, 32506, 32371, 32507, 32657, 32640, 32729, 33024, 33145, 32947, 32761, 32741, 32753, 32785, 32837, 32819, 32787, 32768, 32624, 32448, 32479, 32667, 32843, 32954, 32961, 32892, 32854, 32855, 32819, 32749, 32723, 32763, 32796, 32752, 32614, 32478, 32556, 32829, 32948, 32830, 32815, 32966, 32931, 32700, 32642, 32732, 32725, 32742, 32878, 32902, 32775, 32693, 32652, 32581, 32595, 32773, 32934, 32865, 32712, 32764, 32896, 32833, 32717, 32806, 32972, 32941, 32770, 32656, 32578, 32499, 32471, 32506, 32710, 33098, 33294, 33060, 32714, 32599, 32682, 32752, 32693], [34612, 30812, 27731, 28136, 30933, 33769, 35746, 37104, 37636, 35737, 31339, 28685, 30178, 32309, 33124, 34523, 35653, 33619, 29434, 27236, 28811, 32056, 34607, 36281, 37522, 37409, 34379, 29989, 28779, 31088, 32822, 33440, 34803, 35180, 32354, 28429, 27287, 29747, 33221, 35486, 36773, 37673, 36796, 32920, 29088, 29255, 31635, 32813, 33786, 35207, 34449, 30927, 27920, 28255, 31181, 34095, 35870, 37034, 37521, 35698, 31348, 28443, 29771, 32236, 33224, 34249, 35305, 33867, 30096, 27673, 29009, 32309, 34715, 35905, 36881, 37038, 34417, 30134, 28784, 30931, 32640, 33407, 34899, 35441, 32966, 29017, 27313, 29452, 32883, 35029, 36492, 37695, 36708, 32792, 29274, 29510, 31731, 32896, 33799, 35174], [32767, 32767, 32767, 32767, 32767, 32767, 32767, 32768, 32768, 32767, 32767, 32767, 32767, 32767, 32767, 32768, 32767, 32767, 32767, 32767, 32767, 32767, 32767, 32767, 32767, 32767, 32768, 32768, 32768, 32768, 32767, 32767, 32767, 32767, 32767, 32767, 32767, 32767, 32767, 32767, 32767, 32767, 32768, 32768, 32767, 32767, 32767, 32767, 32767, 32767, 32768, 32767, 32767, 32767, 32767, 32767, 32767, 32767, 32767, 32767, 32767, 32768, 32768, 32768, 32768, 32767, 32767, 32767, 32767, 32767, 32767, 32767, 32767, 32767, 32767, 32767, 32767, 32768, 32768, 32767, 32767, 32767, 32767, 32767, 32767, 32768, 32767, 32767, 32767, 32767, 32767, 32767, 32767, 32767, 32767, 32767, 32768, 32768, 32768, 32768]], "framecount": 5.0, "time": 1489540499249}
{"dataframe": [[32745, 32753, 32951, 32939, 32482, 32215, 32533, 32819, 32841, 33119, 33396, 33097, 32709, 32666, 32592, 32470, 32559, 32638, 32630, 32775, 32945, 32867, 32677, 32673, 32877, 33021, 32936, 32808, 32798, 32785, 32697, 32623, 32645, 32720, 32724, 32660, 32652, 32702, 32762, 32849, 32924, 32947, 33009, 33052, 32817, 32485, 32520, 32725, 32670, 32607, 32800, 32954, 32848, 32611, 32502, 32678, 32909, 32940, 32926, 32980, 32922, 32737, 32636, 32669, 32727, 32703, 32628, 32715, 32906, 32821, 32559, 32560, 32753, 32861, 32913, 32966, 32954, 32854, 32745, 32737, 32774, 32716, 32666, 32748, 32773, 32641, 32545, 32547, 32583, 32738, 32999, 33124, 33085, 33093, 33037, 32701, 32399, 32442, 32566, 32614], [31743, 32041, 33252, 34667, 35107, 34351, 33359, 32774, 32114, 31239, 31144, 32069, 32814, 32858, 32800, 32640, 32035, 31629, 32295, 33689, 34675, 34774, 34338, 33617, 32552, 31416, 30911, 31406, 32375, 33006, 33074, 32800, 32367, 31913, 31782, 32494, 33879, 34848, 34781, 34113, 33274, 32267, 31288, 30968, 31649, 32674, 33115, 32934, 32600, 32146, 31625, 31823, 33182, 34669, 35053, 34462, 33628, 32767, 31851, 31160, 31208, 32015, 32792, 33009, 32912, 32613, 32113, 31888, 32374, 33384, 34303, 34635, 34338, 33611, 32631, 31615, 31009, 31359, 32436, 33155, 33054, 32666, 32308, 31935, 31861, 32537, 33804, 34799, 34796, 34036, 33183, 32264, 31208, 30867, 31794, 32913, 33173, 32945, 32668, 32168], [33124, 33278, 32774, 31990, 31791, 32226, 32618, 32877, 33386, 33794, 33463, 32760, 32451, 32488, 32551, 32749, 33118, 33335, 33094, 32420, 31765, 31644, 32059, 32616, 33138, 33666, 33923, 33521, 32769, 32380, 32418, 32492, 32690, 33210, 33512, 32983, 32026, 31515, 31656, 32135, 32770, 33435, 33891, 33895, 33409, 32790, 32459, 32444, 32587, 32822, 33022, 32915, 32364, 31766, 31776, 32341, 32781, 33023, 33510, 33973, 33724, 32931, 32373, 32268, 32329, 32534, 32993, 33351, 33070, 32313, 31825, 31889, 32247, 32730, 33241, 33650, 33819, 33495, 32775, 32296, 32298, 32453, 32680, 33007, 33166, 32947, 32434, 31953, 31903, 32269, 32679, 33146, 33790, 34011, 33355, 32555, 32314, 32340, 32426, 32772], [32723, 32521, 32250, 32601, 33125, 33092, 32932, 33064, 32976, 32570, 32511, 32835, 32939, 32729, 32522, 32420, 32451, 32607, 32755, 32895, 33084, 33141, 32980, 32885, 32976, 32955, 32713, 32542, 32581, 32643, 32589, 32460, 32342, 32342, 32506, 32765, 33121, 33608, 33913, 33601, 32882, 32354, 32163, 32172, 32369, 32536, 32402, 32304, 32652, 33028, 32947, 32848, 33197, 33518, 33342, 33044, 32987, 32834, 32320, 31807, 31727, 32228, 33102, 33578, 33206, 32622, 32396, 32350, 32520, 33146, 33756, 33719, 33211, 32683, 32213, 31901, 31984, 32341, 32639, 32890, 33157, 33175, 32949, 32856, 32906, 32871, 32776, 32710, 32761, 32895, 32819, 32549, 32453, 32546, 32687, 32909, 33068, 32960, 32732, 32616], [32182, 32076, 32770, 33612, 33879, 33745, 33469, 32896, 32082, 31555, 31789, 32525, 33018, 33096, 33005, 32633, 32121, 32056, 32499, 33138, 33805, 34103, 33704, 33032, 32594, 32201, 31789, 31979, 32758, 33115, 32797, 32480, 32245, 31852, 31793, 32630, 33941, 34699, 34495, 33828, 33144, 32334, 31464, 31169, 31708, 32374, 32658, 32873, 33028, 32748, 32377, 32607, 33354, 33946, 33991, 33594, 33101, 32700, 32144, 31412, 31292, 32241, 33402, 33690, 33058, 32261, 31814, 31695, 32129, 33439, 34874, 35174, 34220, 32923, 31896, 31132, 30838, 31437, 32489, 33129, 33370, 33434, 33031, 32393, 32304, 32873, 33552, 33893, 33717, 33160, 32585, 32111, 31668, 31600, 32252, 33059, 33275, 33115, 32977, 32590], [32661, 32841, 32976, 32803, 32652, 32727, 32672, 32512, 32642, 32897, 32933, 32906, 32915, 32776, 32603, 32652, 32842, 32976, 32940, 32732, 32593, 32662, 32719, 32668, 32624, 32621, 32744, 32921, 32871, 32758, 32895, 33009, 32908, 32912, 32998, 32826, 32508, 32311, 32280, 32442, 32679, 32784, 32904, 33194, 33310, 33050, 32805, 32733, 32596, 32513, 32681, 32834, 32782, 32671, 32614, 32618, 32665, 32732, 32807, 32873, 32927, 32937, 32890, 32859, 32847, 32791, 32771, 32825, 32720, 32387, 32216, 32462, 32849, 33041, 33046, 33025, 33032, 32971, 32810, 32676, 32600, 32507, 32513, 32718, 32909, 32848, 32660, 32651, 32776, 32817, 32891, 33045, 32969, 32723, 32666, 32675, 32576, 32603, 32722, 32687], [34684, 31307, 27967, 27962, 30958, 34005, 35542, 36450, 37193, 35935, 32017, 29193, 30097, 31918, 32771, 34233, 35546, 33902, 29920, 27507, 28864, 32198, 34785, 36060, 36792, 36760, 34425, 30470, 29031, 31086, 32807, 33281, 34564, 35343, 32991, 29045, 27553, 29546, 32546, 34798, 36424, 37416, 36760, 33425, 29545, 29241, 31700, 32999, 33595, 35071, 35015, 31667, 27997, 27727, 30526, 33519, 35436, 36805, 37535, 36042, 32022, 29116, 30007, 31957, 32797, 34141, 35611, 34243, 30199, 27476, 28548, 31565, 34061, 35950, 37488, 37573, 34851, 30548, 28859, 30749, 32415, 32951, 34457, 35454, 33180, 29303, 27762, 29506, 32401, 34745, 36395, 37419, 36920, 33648, 29528, 28933, 31457, 33000, 33596, 34881], [32767, 32767, 32767, 32767, 32767, 32767, 32767, 32767, 32767, 32767, 32767, 32767, 32768, 32768, 32767, 32767, 32767, 32767, 32767, 32767, 32768, 32767, 32767, 32767, 32767, 32767, 32767, 32767, 32767, 32767, 32767, 32768, 32768, 32768, 32768, 32767, 32767, 32767, 32767, 32767, 32767, 32767, 32767, 32767, 32767, 32767, 32767, 32768, 32768, 32767, 32767, 32767, 32767, 32767, 32767, 32768, 32767, 32767, 32767, 32767, 32767, 32767, 32767, 32767, 32767, 32767, 32768, 32768, 32768, 32768, 32767, 32767, 32767, 32767, 32767, 32767, 32767, 32767, 32767, 32767, 32767, 32767, 32768, 32768, 32767, 32767, 32767, 32767, 32767, 32767, 32768, 32767, 32767, 32767, 32767, 32767, 32767, 32767, 32767, 32767]], "framecount": 6.0, "time": 1489540499343}
{"dataframe": [[32769, 32898, 32788, 32679, 32738, 32774, 32770, 32874, 32992, 32966, 32851, 32758, 32695, 32617, 32566, 32638, 32768, 32840, 32932, 32982, 32761, 32494, 32544, 32721, 32787, 32858, 32908, 32867, 32893, 32939, 32783, 32555, 32542, 32730, 32910, 32900, 32710, 32562, 32536, 32509, 32629, 33042, 33329, 33189, 32961, 32792, 32524, 32357, 32473, 32641, 32732, 32863, 32962, 32839, 32627, 32621, 32797, 32914, 32953, 32997, 32899, 32627, 32585, 32848, 32821, 32447, 32431, 32830, 33007, 32819, 32645, 32726, 32923, 32908, 32786, 32936, 33075, 32758, 32352, 32309, 32496, 32738, 32989, 33118, 33099, 33040, 32847, 32425, 32190, 32515, 32899, 32865, 32821, 32998, 33004, 32830, 32785, 32779, 32680, 32631], [31685, 31937, 33043, 34188, 34621, 34450, 33994, 33151, 31979, 31110, 31173, 32057, 32890, 33066, 32838, 32466, 31907, 31588, 32154, 33465, 34621, 34925, 34457, 33682, 32762, 31665, 30903, 31213, 32225, 32854, 32973, 32942, 32519, 31801, 31697, 32635, 33990, 34832, 34712, 33927, 33117, 32416, 31555, 31016, 31576, 32629, 33041, 32919, 32689, 32181, 31667, 31936, 33103, 34348, 34821, 34498, 33853, 32997, 31897, 31061, 31172, 32079, 32850, 33035, 32919, 32590, 32055, 31765, 32177, 33258, 34411, 34803, 34317, 33606, 32868, 31823, 30993, 31316, 32405, 32993, 32889, 32666, 32332, 31832, 31735, 32533, 33909, 34895, 34855, 34127, 33274, 32330, 31331, 30935, 31638, 32711, 33072, 32818, 32552, 32196], [33170, 33206, 32782, 32133, 31778, 32008, 32504, 32935, 33381, 33770, 33629, 32980, 32572, 32590, 32547, 32535, 32881, 33174, 32942, 32391, 31945, 31816, 32093, 32697, 33291, 33651, 33765, 33447, 32746, 32358, 32514, 32631, 32712, 33138, 33318, 32679, 31912, 31736, 31986, 32409, 32910, 33349, 33709, 33782, 33239, 32530, 32359, 32538, 32688, 32932, 33202, 33073, 32511, 31966, 31758, 31904, 32355, 32943, 33471, 33903, 33981, 33413, 32676, 32342, 32240, 32264, 32623, 33007, 32909, 32459, 32152, 32208, 32466, 32741, 33106, 33575, 33749, 33312, 32611, 32232, 32254, 32465, 32890, 33413, 33476, 32849, 32099, 31777, 31828, 32131, 32732, 33392, 33741, 33731, 33416, 32854, 32368, 32240, 32408, 32762], [32579, 32509, 32532, 32814, 33147, 33157, 32890, 32774, 32959, 33051, 32797, 32493, 32393, 32412, 32502, 32619, 32595, 32530, 32772, 33239, 33462, 33326, 33077, 32836, 32610, 32431, 32318, 32343, 32542, 32782, 32881, 32801, 32720, 32755, 32760, 32769, 32963, 33127, 33055, 32961, 32919, 32734, 32449, 32355, 32577, 32848, 32839, 32638, 32551, 32614, 32645, 32671, 32855, 33099, 33228, 33270, 33203, 32963, 32659, 32366, 32072, 31963, 32258, 32829, 33248, 33168, 32746, 32646, 33128, 33503, 33227, 32737, 32524, 32484, 32411, 32264, 32264, 32653, 33084, 33147, 33068, 32992, 32730, 32485, 32547, 32720, 32837, 32975, 33032, 32940, 32874, 32791, 32537, 32332, 32402, 32662, 33043, 33312, 33060, 32486], [31958, 31944, 32940, 33955, 34027, 33586, 33282, 32838, 32119, 31753, 31996, 32406, 32681, 32827, 32799, 32523, 32168, 32229, 32977, 33834, 34066, 33789, 33460, 33054, 32362, 31541, 31239, 31935, 32978, 33340, 33111, 32889, 32619, 32181, 32036, 32546, 33377, 33944, 34043, 33753, 33164, 32433, 31740, 31442, 31947, 32805, 33105, 32890, 32683, 32409, 32054, 32161, 32917, 33808, 34308, 34226, 33650, 32870, 32129, 31555, 31401, 31851, 32526, 32852, 32780, 32590, 32448, 32603, 33267, 34025, 34235, 33875, 33255, 32583, 32005, 31488, 31232, 31804, 32902, 33446, 33297, 33047, 32758, 32340, 32171, 32603, 33408, 33953, 33892, 33457, 32914, 32231, 31570, 31476, 32104, 32868, 33290, 33354, 32998, 32327], [32748, 33038, 33116, 32886, 32740, 32724, 32631, 32508, 32497, 32624, 32809, 32917, 32945, 33013, 33006, 32752, 32540, 32685, 32900, 32847, 32675, 32596, 32623, 32719, 32797, 32776, 32735, 32798, 32888, 32849, 32738, 32717, 32791, 32908, 33023, 32964, 32685, 32463, 32464, 32546, 32651, 32829, 32951, 32896, 32789, 32754, 32759, 32797, 32891, 32948, 32892, 32819, 32799, 32712, 32521, 32407, 32463, 32615, 32849, 33072, 33066, 32885, 32825, 32887, 32800, 32588, 32544, 32719, 32892, 32935, 32869, 32736, 32586, 32485, 32488, 32654, 32951, 33145, 33024, 32748, 32654, 32752, 32833, 32880, 32905, 32786, 32595, 32519, 32535, 32590, 32720, 32885, 32983, 32971, 32884, 32781, 32657, 32583, 32743, 33037], [34780, 31801, 28637, 28279, 30520, 33284, 35254, 36515, 37236, 36063, 32172, 28996, 29881, 32225, 33141, 34159, 35432, 34156, 30339, 27639, 28410, 31363, 34187, 36046, 37161, 37311, 35113, 30884, 28730, 30435, 32501, 33328, 34505, 35181, 33180, 29506, 27739, 29488, 32524, 34659, 36192, 37314, 36721, 33547, 29868, 29205, 31224, 32806, 33779, 35135, 35119, 32162, 28422, 27542, 30050, 33249, 35269, 36524, 37375, 36369, 32596, 29307, 29934, 32165, 32998, 33761, 34894, 33923, 30557, 27970, 28644, 31518, 34121, 35804, 37102, 37412, 35079, 30802, 28795, 30594, 32651, 33355, 34371, 35109, 33352, 29663, 27429, 28845, 32299, 35059, 36578, 37401, 36810, 33647, 29785, 29115, 31292, 32872, 33799, 35083], [32767, 32768, 32768, 32768, 32768, 32767, 32767, 32767, 32767, 32767, 32767, 32767, 32767, 32767, 32767, 32767, 32767, 32768, 32768, 32767, 32767, 32767, 32767, 32767, 32767, 32768, 32767, 32767, 32767, 32767, 32767, 32767, 32767, 32767, 32767, 32767, 32768, 32768, 32768, 32768, 32767, 32767, 32767, 32767, 32767, 32767, 32767, 32767, 32767, 32767, 32767, 32767, 32768, 32768, 32767, 32767, 32767, 32767, 32767, 32767, 32768, 32767, 32767, 32767, 32767, 32767, 32767, 32767, 32767, 32767, 32767, 32768, 32768, 32768, 32768, 32767, 32767, 32767, 32767, 32767, 32767, 32767, 32767, 32767, 32767, 32767, 32767, 32768, 32768, 32767, 32767, 32767, 32767, 32767, 32767, 32768, 32767, 32767, 32767, 32767]], "framecount": 7.0, "time": 1489540499452}
{"dataframe": [[32676, 32734, 32760, 32686, 32568, 32626, 32852, 32974, 32928, 32905, 32937, 32885, 32751, 32657, 32621, 32622, 32699, 32782, 32765, 32707, 32697, 32734, 32747, 32733, 32816, 32954, 32966, 32918, 32877, 32752, 32661, 32703, 32672, 32567, 32623, 32757, 32751, 32692, 32718, 32784, 32868, 32976, 33033, 32961, 32803, 32719, 32743, 32684, 32535, 32512, 32636, 32824, 32953, 32802, 32550, 32606, 32822, 32915, 33023, 33078, 32874, 32729, 32809, 32694, 32408, 32484, 32844, 32973, 32853, 32724, 32559, 32395, 32501, 32863, 33176, 33292, 33197, 32927, 32678, 32581, 32511, 32393, 32403, 32658, 32914, 32891, 32774, 32848, 32920, 32809, 32759, 32827, 32859, 32933, 32920, 32650, 32528, 32683, 32657, 32554], [31791, 32008, 33031, 34193, 34820, 34678, 33927, 32975, 32042, 31177, 30922, 31746, 32860, 33227, 32994, 32593, 32009, 31614, 32109, 33407, 34590, 34904, 34406, 33623, 32740, 31651, 30883, 31245, 32333, 32995, 33007, 32746, 32321, 31974, 32063, 32689, 33705, 34533, 34552, 33961, 33295, 32535, 31630, 31159, 31609, 32485, 32954, 32909, 32643, 32217, 31801, 31927, 32907, 34195, 34835, 34612, 33997, 33164, 32057, 31087, 30910, 31674, 32760, 33330, 33098, 32490, 32033, 31867, 32141, 33134, 34370, 34841, 34443, 33781, 32949, 31795, 30868, 31032, 32093, 32902, 33059, 33015, 32723, 32033, 31666, 32372, 33711, 34544, 34510, 34120, 33559, 32585, 31486, 31063, 31605, 32460, 32914, 32970, 32818, 32375], [33150, 33188, 32724, 32195, 31969, 31997, 32319, 32928, 33461, 33676, 33550, 33052, 32542, 32483, 32670, 32770, 32905, 33073, 32964, 32486, 31898, 31621, 31929, 32595, 33189, 33659, 33992, 33801, 33054, 32436, 32321, 32383, 32465, 32743, 33084, 33052, 32513, 31905, 31824, 32331, 32911, 33253, 33557, 33736, 33308, 32579, 32381, 32564, 32580, 32703, 33145, 33316, 32820, 32088, 31744, 31901, 32299, 32821, 33435, 33866, 33754, 33120, 32510, 32386, 32525, 32612, 32811, 33152, 33198, 32665, 31932, 31679, 32040, 32549, 32995, 33537, 33931, 33643, 32857, 32404, 32521, 32684, 32692, 32862, 33105, 32859, 32144, 31702, 31908, 32415, 32877, 33285, 33708, 33892, 33452, 32709, 32346, 32328, 32394, 32688], [32241, 32418, 32692, 32943, 33152, 33234, 33161, 32944, 32621, 32351, 32316, 32524, 32814, 33018, 33060, 32920, 32583, 32171, 32025, 32414, 33113, 33584, 33633, 33478, 33191, 32674, 32105, 31922, 32264, 32706, 32849, 32835, 32828, 32642, 32362, 32465, 33028, 33506, 33432, 33050, 32914, 32936, 32601, 32132, 32244, 32765, 32914, 32702, 32638, 32661, 32544, 32478, 32686, 33100, 33386, 33270, 32952, 32777, 32761, 32749, 32613, 32436, 32507, 32757, 32777, 32561, 32400, 32364, 32550, 33088, 33608, 33643, 33307, 32906, 32482, 32124, 32076, 32363, 32738, 32965, 32941, 32752, 32653, 32730, 32759, 32698, 32880, 33308, 33420, 33059, 32710, 32524, 32296, 32180, 32393, 32715, 32908, 32974, 32883, 32697], [31887, 32073, 32849, 33808, 34251, 33946, 33405, 32876, 32084, 31287, 31331, 32290, 33176, 33343, 33066, 32679, 32252, 32020, 32302, 33076, 33899, 34257, 34032, 33440, 32605, 31680, 31170, 31558, 32606, 33359, 33317, 32954, 32538, 31936, 31708, 32481, 33678, 34318, 34219, 33686, 32988, 32294, 31654, 31385, 32005, 33048, 33404, 33100, 32802, 32389, 31768, 31660, 32485, 33684, 34415, 34242, 33470, 32835, 32481, 32043, 31792, 32197, 32775, 32894, 32718, 32486, 32130, 31828, 32085, 33126, 34331, 34764, 34357, 33582, 32500, 31371, 31011, 31581, 32361, 32862, 33120, 33161, 32886, 32397, 32145, 32586, 33511, 34078, 33895, 33421, 33045, 32580, 31867, 31388, 31727, 32555, 33059, 33059, 32838, 32545], [33076, 32829, 32623, 32501, 32390, 32512, 32836, 32946, 32841, 32870, 33027, 33000, 32684, 32436, 32610, 32922, 32923, 32788, 32818, 32825, 32683, 32636, 32689, 32633, 32605, 32769, 32915, 32916, 32862, 32751, 32674, 32776, 32902, 32890, 32870, 32875, 32775, 32607, 32489, 32496, 32645, 32778, 32799, 32851, 32916, 32832, 32764, 32881, 32967, 32874, 32766, 32756, 32790, 32786, 32676, 32477, 32377, 32523, 32783, 32956, 33030, 33032, 32922, 32723, 32593, 32667, 32868, 33040, 33103, 32899, 32423, 32153, 32378, 32692, 32791, 32874, 33029, 33103, 33036, 32856, 32696, 32677, 32698, 32698, 32788, 32825, 32655, 32535, 32596, 32678, 32806, 32958, 32935, 32817, 32808, 32820, 32740, 32695, 32771, 32834], [34787, 31804, 28530, 27813, 29941, 33096, 35591, 36976, 37410, 36213, 32681, 29371, 29579, 31614, 32652, 33784, 35286, 34452, 30936, 28089, 28513, 31315, 34064, 35729, 36770, 37111, 35205, 31162, 28930, 30452, 32457, 33203, 34343, 35349, 33712, 29855, 27487, 28853, 32133, 34761, 36354, 37292, 36853, 33809, 29782, 28998, 31407, 32945, 33467, 34909, 35289, 32466, 28763, 27750, 29831, 32824, 35072, 36478, 37257, 36387, 32870, 29396, 29659, 31933, 32925, 33786, 35298, 34660, 31045, 27883, 28156, 30990, 33808, 35632, 36892, 37339, 35485, 31511, 29183, 30366, 31997, 32735, 34333, 35581, 33739, 30001, 27970, 29028, 31710, 34206, 35945, 37137, 37195, 34575, 30443, 29081, 30993, 32533, 33260, 34706], [32767, 32767, 32767, 32767, 32767, 32767, 32768, 32768, 32768, 32768, 32767, 32767, 32767, 32767, 32767, 32767, 32767, 32767, 32767, 32767, 32767, 32767, 32768, 32768, 32767, 32767, 32767, 32767, 32767, 32767, 32768, 32767, 32767, 32767, 32767, 32767, 32767, 32767, 32767, 32767, 32767, 32768, 32768, 32768, 32768, 32767, 32767, 32767, 32767, 32767, 32767, 32767, 32767, 32767, 32767, 32767, 32767, 32768, 32768, 32767, 32767, 32767, 32767, 32767, 32767, 32768, 32767, 32767, 32767, 32767, 32767, 32767, 32767, 32767, 32767, 32767, 32768, 32768, 32768, 32768, 32767, 32767, 32767, 32767, 32767, 32767, 32767, 32767, 32767, 32767, 32767, 32767, 32768, 32768, 32767, 32767, 32767, 32767, 32767, 32767]], "framecount": 8.0, "time": 1489540499546}
{"dataframe": [[32739, 32917, 32875, 32870, 32874, 32722, 32622, 32712, 32817, 32825, 32759, 32718, 32830, 32979, 32905, 32696, 32637, 32701, 32698, 32634, 32616, 32697, 32838, 32866, 32762, 32792, 32972, 32987, 32847, 32808, 32762, 32594, 32570, 32739, 32802, 32686, 32570, 32607, 32754, 32820, 32841, 33002, 33140, 33022, 32800, 32638, 32479, 32436, 32637, 32861, 32902, 32859, 32822, 32740, 32675, 32724, 32776, 32725, 32687, 32747, 32858, 32945, 32925, 32834, 32793, 32765, 32694, 32738, 32820, 32578, 32256, 32457, 32923, 33017, 32924, 33018, 33063, 32930, 32830, 32716, 32548, 32537, 32617, 32613, 32700, 32910, 32908, 32675, 32586, 32742, 32902, 32924, 32860, 32806, 32832, 32912, 32872, 32664, 32580, 32736], [31814, 31789, 32672, 33876, 34590, 34711, 34350, 33431, 32184, 31156, 30949, 31768, 32753, 32963, 32698, 32462, 32079, 31776, 32309, 33594, 34610, 34737, 34238, 33533, 32743, 31834, 31059, 31132, 32191, 33121, 33112, 32705, 32401, 31998, 31741, 32344, 33714, 34802, 34830, 34097, 33277, 32478, 31576, 31015, 31456, 32604, 33240, 32905, 32409, 32206, 31947, 31857, 32672, 34097, 34961, 34786, 34027, 33110, 32107, 31165, 30848, 31605, 32802, 33302, 33034, 32662, 32260, 31766, 31899, 33092, 34377, 34698, 34283, 33717, 32983, 32017, 31242, 31241, 32038, 32870, 33109, 32881, 32407, 31816, 31637, 32395, 33715, 34607, 34657, 34234, 33589, 32655, 31604, 31010, 31390, 32418, 33074, 32969, 32606, 32290], [33130, 33244, 32814, 32125, 31689, 31811, 32308, 32905, 33617, 34193, 33971, 33036, 32336, 32214, 32250, 32418, 32902, 33281, 33099, 32593, 32180, 31984, 32045, 32382, 32938, 33565, 33879, 33557, 32918, 32553, 32480, 32430, 32530, 32913, 33210, 32991, 32369, 31874, 31855, 32251, 32826, 33313, 33618, 33733, 33393, 32642, 32192, 32371, 32720, 32930, 33141, 33224, 32745, 31963, 31689, 31996, 32414, 32884, 33445, 33837, 33780, 33227, 32563, 32276, 32331, 32511, 32871, 33244, 33144, 32558, 32025, 31888, 32085, 32511, 33061, 33533, 33726, 33479, 32912, 32496, 32403, 32423, 32673, 33248, 33518, 32948, 32077, 31714, 31824, 32086, 32595, 33279, 33764, 33881, 33540, 32867, 32425, 32402, 32452, 32554], [32655, 32766, 32876, 33040, 33271, 33296, 32940, 32465, 32242, 32261, 32319, 32489, 32887, 33214, 33141, 32850, 32689, 32637, 32554, 32605, 32905, 33177, 33195, 33050, 32803, 32471, 32252, 32326, 32605, 32863, 32972, 32947, 32847, 32705, 32612, 32696, 32890, 32993, 32944, 32844, 32811, 32793, 32649, 32506, 32618, 32865, 32948, 32859, 32675, 32412, 32292, 32547, 32968, 33183, 33207, 33224, 33172, 32939, 32532, 32124, 32077, 32411, 32654, 32748, 33100, 33492, 33317, 32758, 32462, 32460, 32443, 32500, 32721, 32887, 33008, 33174, 33119, 32818, 32690, 32786, 32739, 32470, 32247, 32226, 32373, 32704, 33182, 33490, 33410, 33162, 32952, 32699, 32416, 32296, 32387, 32570, 32771, 32917, 32883, 32691], [32315, 32431, 33053, 33806, 34075, 33818, 33359, 32740, 31978, 31347, 31300, 32096, 33127, 33493, 33249, 32891, 32451, 32071, 32235, 32947, 33675, 34050, 33902, 33257, 32543, 32034, 31653, 31704, 32408, 33079, 33171, 32942, 32608, 32231, 32105, 32504, 33332, 34041, 34096, 33629, 33038, 32338, 31644, 31535, 32202, 32920, 33065, 32893, 32726, 32507, 32266, 32187, 32556, 33472, 34278, 34234, 33571, 32895, 32244, 31568, 31330, 31807, 32547, 33112, 33436, 33394, 32915, 32247, 31934, 32477, 33449, 33826, 33554, 33286, 33009, 32465, 32022, 32116, 32574, 32910, 32849, 32498, 32167, 31974, 31935, 32425, 33553, 34470, 34461, 33828, 33085, 32417, 31901, 31611, 31727, 32280, 32807, 32936, 32869, 32725], [32826, 32852, 32846, 32663, 32475, 32514, 32666, 32775, 32894, 33013, 33008, 32859, 32663, 32553, 32632, 32825, 32910, 32888, 32939, 32927, 32666, 32468, 32557, 32608, 32540, 32708, 33028, 33061, 32881, 32818, 32783, 32669, 32739, 32970, 32961, 32746, 32649, 32610, 32497, 32512, 32714, 32818, 32799, 32901, 33033, 32978, 32812, 32664, 32608, 32738, 32946, 32967, 32776, 32590, 32537, 32581, 32624, 32639, 32763, 33022, 33150, 33030, 32849, 32639, 32411, 32423, 32699, 32919, 33003, 33041, 32943, 32758, 32671, 32573, 32444, 32552, 32789, 32823, 32785, 32895, 32972, 32875, 32822, 32912, 32929, 32801, 32669, 32546, 32429, 32458, 32641, 32825, 32925, 32966, 32991, 32981, 32862, 32673, 32578, 32640], [35109, 32513, 28908, 27759, 29754, 32815, 35261, 36869, 37583, 36493, 32867, 29193, 29163, 31533, 32908, 33850, 35225, 34741, 31446, 28227, 28127, 30821, 33776, 35573, 36679, 37277, 35746, 31698, 28941, 30053, 32104, 32994, 34244, 35368, 33856, 30228, 27922, 28935, 31857, 34383, 35960, 37069, 37118, 34501, 30243, 28686, 30813, 32853, 33653, 34824, 35174, 32640, 28847, 27526, 29780, 33103, 35171, 36277, 37229, 36783, 33337, 29366, 29171, 31592, 32814, 33473, 34912, 34797, 31725, 28446, 28196, 30809, 33821, 35708, 36676, 37012, 35487, 31581, 28847, 30102, 32335, 33096, 34292, 35727, 34226, 30066, 27456, 28679, 31774, 34285, 35884, 36985, 37112, 34845, 30767, 28906, 30607, 32475, 33432, 34854], [32768, 32767, 32767, 32767, 32767, 32767, 32767, 32767, 32767, 32767, 32767, 32768, 32768, 32768, 32768, 32767, 32767, 32767, 32767, 32767, 32767, 32767, 32767, 32767, 32767, 32767, 32767, 32768, 32768, 32767, 32767, 32767, 32767, 32767, 32767, 32768, 32767, 32767, 32767, 32767, 32767, 32767, 32767, 32767, 32767, 32767, 32768, 32768, 32768, 32768, 32767, 32767, 32767, 32767, 32767, 32767, 32767, 32767, 32767, 32767, 32767, 32767, 32768, 32768, 32767, 32767, 32767, 32767, 32767, 32767, 32768, 32767, 32767, 32767, 32767, 32767, 32767, 32767, 32767, 32767, 32767, 32768, 32768, 32768, 32768, 32767, 32767, 32767, 32767, 32767, 32767, 32767, 32767, 32767, 32767, 32767, 32767, 32768, 32768, 32767]], "framecount": 9.0, "time": 1489540499656}
{"dataframe": [[32796, 32651, 32619, 32729, 32698, 32578, 32642, 32846, 33049, 33252, 33204, 32763, 32461, 32579, 32678, 32616, 32655, 32756, 32790, 32781, 32699, 32618, 32710, 32859, 32906, 32990, 33061, 32870, 32639, 32704, 32807, 32628, 32459, 32619, 32841, 32859, 32842, 32802, 32622, 32598, 32867, 32991, 32873, 32883, 32936, 32760, 32588, 32605, 32661, 32775, 32887, 32777, 32663, 32750, 32697, 32478, 32562, 32906, 33096, 33166, 33180, 32902, 32535, 32497, 32567, 32510, 32605, 32851, 32924, 32833, 32699, 32560, 32618, 32871, 32998, 32981, 33001, 32914, 32692, 32634, 32711, 32653, 32583, 32715, 32928, 32999, 32767, 32343, 32236, 32642, 33047, 33074, 33011, 33114, 33143, 32901, 32594, 32413, 32351, 32438], [31934, 31858, 32671, 34017, 34717, 34498, 34020, 33421, 32435, 31340, 30896, 31516, 32577, 33089, 32951, 32659, 32350, 32028, 32118, 32969, 34052, 34539, 34371, 33850, 32993, 31988, 31343, 31385, 32022, 32741, 33025, 32860, 32464, 31952, 31706, 32306, 33582, 34512, 34593, 34277, 33712, 32612, 31408, 31036, 31696, 32649, 33104, 32943, 32537, 32123, 31743, 31727, 32595, 34066, 34963, 34730, 33982, 33217, 32285, 31298, 31008, 31774, 32773, 33137, 32960, 32514, 31941, 31693, 32114, 33129, 34306, 34890, 34528, 33698, 32833, 31919, 31201, 31266, 32082, 32856, 33095, 32930, 32505, 31987, 31728, 32076, 33183, 34493, 34994, 34535, 33702, 32667, 31538, 30971, 31400, 32343, 32973, 33046, 32787, 32305], [32912, 33204, 32888, 32169, 31834, 32071, 32451, 32867, 33391, 33752, 33649, 33128, 32596, 32374, 32333, 32414, 32847, 33363, 33299, 32649, 32013, 31764, 31930, 32430, 33069, 33649, 33938, 33608, 32818, 32300, 32300, 32456, 32663, 32978, 33203, 33138, 32756, 32188, 31786, 31885, 32404, 33035, 33578, 33761, 33387, 32834, 32543, 32480, 32620, 32928, 33089, 33062, 32901, 32336, 31672, 31722, 32369, 32863, 33183, 33591, 33731, 33315, 32758, 32479, 32433, 32581, 32977, 33311, 33120, 32471, 31893, 31693, 31877, 32430, 33123, 33589, 33805, 33736, 33185, 32559, 32410, 32437, 32390, 32669, 33110, 32996, 32475, 32235, 32265, 32284, 32477, 32939, 33378, 33565, 33389, 32927, 32586, 32564, 32664, 32812], [32560, 32660, 32923, 33052, 32935, 32896, 33031, 32940, 32611, 32509, 32623, 32613, 32594, 32783, 32946, 32889, 32695, 32411, 32275, 32678, 33354, 33566, 33194, 32754, 32549, 32471, 32408, 32444, 32678, 32964, 33032, 32865, 32638, 32464, 32408, 32571, 32984, 33414, 33531, 33223, 32627, 32144, 32150, 32488, 32752, 32856, 32878, 32873, 32927, 32943, 32737, 32478, 32484, 32741, 32979, 33008, 32924, 32895, 32837, 32710, 32714, 32828, 32762, 32575, 32602, 32722, 32598, 32413, 32518, 32816, 33049, 33190, 33243, 33137, 32928, 32741, 32562, 32387, 32371, 32537, 32683, 32722, 32810, 32965, 32922, 32691, 32639, 32802, 32932, 33027, 33058, 32824, 32512, 32583, 32924, 32958, 32678, 32565, 32524, 32282], [32387, 32238, 32808, 33689, 34061, 33910, 33521, 32800, 31987, 31619, 31720, 32106, 32756, 33399, 33504, 32914, 32133, 31727, 31891, 32715, 33882, 34496, 34195, 33457, 32663, 31931, 31504, 31670, 32316, 32886, 33126, 33143, 32784, 32113, 31828, 32337, 33305, 34151, 34368, 33872, 33151, 32509, 31772, 31223, 31567, 32539, 33144, 33187, 33069, 32780, 32262, 32066, 32654, 33518, 33928, 33892, 33570, 32900, 32166, 31780, 31768, 32113, 32738, 33155, 33082, 32789, 32436, 32091, 32188, 32874, 33624, 34037, 34025, 33538, 32800, 32082, 31527, 31612, 32372, 32847, 32800, 32921, 33042, 32666, 32274, 32467, 33106, 33676, 33850, 33626, 33036, 32249, 31737, 31775, 32322, 33023, 33230, 32979, 32819, 32513], [32752, 32815, 32852, 32853, 32768, 32696, 32726, 32744, 32697, 32689, 32714, 32705, 32716, 32749, 32828, 33027, 33068, 32793, 32720, 32960, 32865, 32473, 32400, 32538, 32560, 32691, 32994, 33110, 32936, 32724, 32647, 32719, 32866, 32972, 32992, 32920, 32686, 32401, 32350, 32493, 32637, 32865, 33105, 33071, 32898, 32823, 32719, 32596, 32669, 32864, 32944, 32859, 32724, 32672, 32695, 32662, 32559, 32541, 32687, 32882, 33023, 33079, 32970, 32733, 32595, 32628, 32717, 32828, 32897, 32845, 32755, 32657, 32559, 32651, 32853, 32803, 32665, 32779, 32856, 32704, 32727, 32975, 32972, 32777, 32826, 32926, 32741, 32587, 32677, 32657, 32448, 32462, 32799, 33050, 32974, 32805, 32778, 32820, 32849, 32916], [35226, 32668, 29128, 27931, 29723, 32536, 34742, 36280, 37307, 36752, 33432, 29656, 29408, 31628, 32714, 33405, 35025, 35009, 31823, 28365, 27970, 30413, 33274, 35355, 36884, 37552, 35948, 31988, 29134, 30020, 32113, 32968, 33940, 35151, 34100, 30540, 27789, 28549, 31637, 34274, 35832, 37052, 37297, 34910, 30843, 29157, 30762, 32237, 32863, 34339, 35234, 33246, 29635, 27840, 29373, 32465, 34938, 36471, 37328, 36643, 33390, 29609, 29162, 31437, 32860, 33556, 34839, 34846, 32102, 28805, 28144, 30434, 33347, 35269, 36423, 37029, 35896, 32300, 29233, 29939, 32188, 32980, 33806, 35310, 34552, 30832, 27806, 28375, 31324, 33998, 35667, 36958, 37385, 35128, 30835, 28884, 30653, 32497, 33241, 34584], [32767, 32767, 32767, 32767, 32767, 32768, 32767, 32767, 32767, 32767, 32767, 32767, 32767, 32767, 32767, 32767, 32768, 32768, 32768, 32768, 32767, 32767, 32767, 32767, 32767, 32767, 32767, 32767, 32767, 32767, 32767, 32767, 32768, 32768, 32767, 32767, 32767, 32767, 32767, 32767, 32768, 32767, 32767, 32767, 32767, 32767, 32767, 32767, 32767, 32767, 32767, 32768, 32768, 32768, 32768, 32767, 32767, 32767, 32767, 32767, 32767, 32767, 32767, 32767, 32767, 32767, 32767, 32768, 32768, 32767, 32767, 32767, 32767, 32767, 32767, 32768, 32767, 32767, 32767, 32767, 32767, 32767, 32767, 32767, 32767, 32767, 32768, 32768, 32768, 32768, 32767, 32767, 32767, 32767, 32767, 32767, 32767, 32767, 32767, 32767]], "framecount": 10.0, "time": 1489540499734}
{"dataframe": [[32694, 32969, 33051, 32888, 32683, 32614, 32626, 32680, 32844, 33045, 33049, 32828, 32705, 32825, 32807, 32532, 32520, 32817, 32817, 32593, 32655, 32803, 32750, 32774, 32920, 32907, 32851, 32928, 32895, 32708, 32674, 32710, 32583, 32562, 32765, 32832, 32781, 32863, 32875, 32682, 32587, 32716, 32904, 32998, 32890, 32727, 32743, 32760, 32640, 32674, 32868, 32858, 32694, 32663, 32657, 32569, 32635, 32872, 33013, 33042, 33006, 32777, 32559, 32712, 32950, 32822, 32560, 32536, 32641, 32693, 32757, 32850, 32829, 32671, 32611, 32842, 33155, 33136, 32818, 32653, 32749, 32771, 32605, 32520, 32626, 32718, 32742, 32830, 32865, 32701, 32604, 32797, 32988, 32945, 32898, 32937, 32874, 32780, 32716, 32506], [31813, 31825, 32614, 33808, 34652, 34691, 34123, 33332, 32410, 31468, 31052, 31590, 32547, 33047, 33014, 32721, 32164, 31667, 31940, 33061, 34180, 34608, 34475, 34015, 33198, 32108, 31110, 30956, 31969, 33014, 33065, 32718, 32553, 32183, 31757, 32149, 33327, 34261, 34520, 34441, 34006, 33000, 31757, 30967, 31152, 32096, 32900, 33088, 32868, 32400, 31886, 31867, 32630, 33748, 34554, 34690, 34166, 33314, 32443, 31515, 30912, 31457, 32660, 33089, 32812, 32716, 32483, 31887, 31948, 33019, 34072, 34508, 34502, 33971, 32939, 31942, 31282, 31135, 31835, 32940, 33374, 33005, 32484, 32007, 31682, 32098, 33322, 34392, 34629, 34321, 33786, 32913, 31754, 30924, 31159, 32280, 33146, 33150, 32785, 32458], [33010, 33060, 32781, 32227, 31751, 31790, 32314, 32872, 33297, 33728, 33925, 33466, 32696, 32354, 32402, 32437, 32598, 32998, 33169, 32773, 32155, 31831, 31942, 32362, 32950, 33598, 34039, 33802, 32973, 32429, 32465, 32456, 32368, 32715, 33160, 33004, 32434, 32068, 32045, 32239, 32617, 33088, 33503, 33725, 33562, 33087, 32671, 32390, 32215, 32442, 33012, 33227, 32752, 32053, 31750, 32013, 32547, 33049, 33514, 33891, 33824, 33204, 32534, 32245, 32218, 32292, 32575, 33034, 33265, 32966, 32378, 31932, 31909, 32418, 33141, 33588, 33719, 33548, 32931, 32313, 32242, 32417, 32560, 32949, 33408, 33298, 32559, 31836, 31702, 32138, 32743, 33227, 33571, 33733, 33464, 32794, 32266, 32244, 32511, 32766], [32298, 32803, 33196, 33272, 33311, 33156, 32783, 32613, 32561, 32362, 32365, 32717, 32925, 32810, 32706, 32762, 32807, 32685, 32530, 32683, 33163, 33482, 33269, 32768, 32444, 32377, 32362, 32427, 32675, 32905, 32952, 32890, 32771, 32694, 32703, 32668, 32725, 33031, 33217, 33037, 32815, 32714, 32541, 32357, 32463, 32821, 33051, 32983, 32756, 32426, 32121, 32300, 33006, 33494, 33398, 33154, 32989, 32810, 32656, 32422, 32149, 32275, 32708, 32901, 32927, 33015, 32863, 32485, 32456, 32861, 33212, 33252, 33059, 32776, 32579, 32536, 32533, 32530, 32624, 32784, 32872, 32865, 32798, 32683, 32563, 32572, 32825, 33126, 33150, 33008, 32927, 32761, 32455, 32311, 32540, 32953, 33123, 32932, 32671, 32486], [31933, 31959, 32787, 33502, 33819, 33957, 33614, 32840, 32263, 31909, 31688, 32118, 33010, 33315, 32945, 32631, 32404, 32080, 32110, 32777, 33612, 34061, 33989, 33549, 32904, 32157, 31588, 31680, 32383, 32931, 32967, 32875, 32732, 32284, 31897, 32280, 33349, 34168, 34132, 33668, 33328, 32834, 31910, 31255, 31584, 32474, 33055, 33100, 32853, 32523, 32297, 32353, 32776, 33465, 33999, 34013, 33616, 33034, 32267, 31525, 31391, 31991, 32701, 33087, 33208, 33040, 32588, 32150, 32116, 32793, 33843, 34281, 33846, 33233, 32680, 31988, 31509, 31700, 32324, 32853, 33121, 33171, 32905, 32390, 32092, 32390, 33129, 33788, 33984, 33731, 33243, 32613, 31832, 31305, 31696, 32746, 33379, 33298, 32967, 32523], [32977, 32910, 32715, 32480, 32336, 32446, 32713, 32854, 32924, 33055, 32984, 32673, 32602, 32818, 32828, 32682, 32807, 33020, 32929, 32710, 32653, 32640, 32564, 32532, 32547, 32653, 32985, 33271, 33106, 32699, 32535, 32675, 32832, 32788, 32692, 32833, 32997, 32795, 32472, 32435, 32604, 32812, 32959, 32947, 32898, 32885, 32746, 32584, 32637, 32803, 32915, 32923, 32787, 32654, 32681, 32714, 32682, 32738, 32804, 32750, 32747, 32844, 32813, 32651, 32644, 32895, 33128, 33030, 32703, 32550, 32659, 32697, 32576, 32593, 32778, 32847, 32789, 32803, 32885, 32917, 32843, 32704, 32679, 32859, 33008, 32897, 32626, 32453, 32516, 32719, 32817, 32747, 32744, 32904, 32944, 32767, 32698, 32802, 32808, 32769], [35280, 33121, 29485, 27777, 29330, 32382, 34759, 36150, 37150, 36969, 33928, 29764, 28998, 31418, 32908, 33383, 34737, 35009, 32123, 28649, 28185, 30475, 33126, 35130, 36526, 37136, 36050, 32575, 29282, 29622, 31967, 33105, 33928, 35202, 34379, 30755, 27903, 28600, 31451, 34007, 35735, 36915, 37031, 34912, 31158, 29254, 30598, 32248, 32956, 34305, 35393, 33666, 29858, 27703, 29154, 32275, 34623, 36052, 37086, 36839, 33969, 30030, 29015, 31164, 32882, 33585, 34860, 35246, 32612, 28718, 27450, 29799, 33127, 35250, 36479, 37298, 36315, 32632, 29380, 29894, 32031, 32914, 33815, 35085, 34207, 30894, 28149, 28413, 31104, 33940, 35735, 36841, 37228, 35436, 31397, 28907, 30290, 32459, 33241, 34215], [32767, 32767, 32768, 32768, 32767, 32767, 32767, 32767, 32767, 32767, 32768, 32767, 32767, 32767, 32767, 32767, 32767, 32767, 32767, 32767, 32767, 32768, 32768, 32768, 32768, 32767, 32767, 32767, 32767, 32767, 32767, 32767, 32767, 32767, 32767, 32767, 32767, 32768, 32768, 32767, 32767, 32767, 32767, 32767, 32767, 32768, 32767, 32767, 32767, 32767, 32767, 32767, 32767, 32767, 32767, 32767, 32768, 32768, 32768, 32768, 32767, 32767, 32767, 32767, 32767, 32767, 32767, 32767, 32767, 32767, 32767, 32767, 32768, 32768, 32767, 32767, 32767, 32767, 32767, 32767, 32768, 32767, 32767, 32767, 32767, 32767, 32767, 32767, 32767, 32767, 32767, 32768, 32768, 32768, 32768, 32767, 32767, 32767, 32767, 32767]], "framecount": 11.0, "time": 1489540499843}
{"dataframe": [[32346, 32584, 32915, 32886, 32676, 32638, 32775, 32921, 32966, 32937, 32934, 32880, 32698, 32623, 32721, 32672, 32525, 32670, 32931, 32870, 32652, 32646, 32761, 32797, 32803, 32837, 32914, 33013, 32933, 32637, 32514, 32688, 32781, 32736, 32801, 32869, 32802, 32707, 32545, 32401, 32606, 32988, 33093, 33028, 33007, 32884, 32723, 32707, 32645, 32474, 32509, 32789, 32987, 32902, 32633, 32485, 32643, 32888, 32927, 32876, 32953, 33001, 32868, 32748, 32712, 32606, 32525, 32610, 32719, 32808, 32868, 32713, 32513, 32630, 32899, 33067, 33167, 33094, 32789, 32541, 32519, 32578, 32646, 32745, 32794, 32767, 32769, 32784, 32719, 32704, 32843, 32932, 32888, 32847, 32778, 32680, 32714, 32795, 32725, 32648], [32027, 31688, 32210, 33652, 34768, 34688, 34053, 33491, 32642, 31470, 30903, 31495, 32527, 33064, 33072, 32821, 32269, 31667, 31759, 32856, 34199, 34776, 34517, 33972, 33240, 32144, 31122, 31030, 31895, 32717, 32980, 33020, 32804, 32141, 31627, 31972, 33113, 34372, 34956, 34584, 33697, 32729, 31707, 30982, 31274, 32323, 32986, 33009, 32895, 32551, 31890, 31642, 32369, 33654, 34564, 34615, 34163, 33584, 32671, 31477, 30912, 31591, 32695, 33068, 32852, 32680, 32355, 31746, 31611, 32543, 34007, 34940, 34901, 34235, 33303, 32131, 30999, 30814, 31855, 32894, 33016, 32835, 32705, 32138, 31556, 32050, 33430, 34446, 34595, 34310, 33850, 33051, 31934, 31060, 31127, 32036, 32885, 33118, 32840, 32306], [33009, 33240, 33151, 32546, 31921, 31856, 32173, 32520, 32991, 33570, 33856, 33589, 32942, 32400, 32310, 32481, 32673, 33007, 33254, 32835, 32058, 31834, 32165, 32472, 32800, 33352, 33752, 33586, 33007, 32548, 32487, 32574, 32598, 32789, 33211, 33272, 32616, 31915, 31816, 32076, 32418, 32917, 33451, 33760, 33646, 33087, 32522, 32380, 32531, 32803, 33148, 33192, 32683, 32073, 31869, 32006, 32287, 32701, 33208, 33710, 33886, 33352, 32571, 32365, 32503, 32517, 32788, 33337, 33383, 32741, 31998, 31596, 31691, 32227, 32869, 33432, 33911, 33941, 33334, 32715, 32499, 32385, 32348, 32667, 33112, 33136, 32639, 32066, 31814, 31950, 32429, 33079, 33614, 33866, 33678, 33047, 32480, 32358, 32447, 32615], [32317, 32324, 32633, 33028, 33307, 33399, 33201, 32848, 32659, 32570, 32433, 32469, 32672, 32720, 32679, 32745, 32726, 32544, 32554, 32893, 33189, 33209, 33120, 32988, 32712, 32460, 32470, 32617, 32690, 32736, 32812, 32836, 32798, 32712, 32519, 32367, 32538, 32930, 33206, 33298, 33265, 33066, 32772, 32563, 32500, 32503, 32469, 32407, 32471, 32633, 32684, 32701, 32888, 33159, 33345, 33346, 33132, 32877, 32668, 32356, 32124, 32307, 32676, 32826, 32794, 32776, 32804, 32818, 32807, 32825, 32844, 32855, 33034, 33279, 33121, 32630, 32358, 32348, 32363, 32507, 32827, 33052, 32986, 32716, 32473, 32512, 32854, 33107, 33067, 33050, 33092, 32881, 32553, 32418, 32448, 32586, 32785, 32848, 32772, 32722], [32072, 32014, 32489, 33298, 34003, 34094, 33601, 33003, 32428, 31829, 31654, 32195, 32782, 32872, 32869, 32902, 32531, 32046, 32206, 32967, 33709, 34024, 33812, 33274, 32733, 32245, 31809, 31773, 32323, 32944, 33125, 33007, 32795, 32371, 31878, 31953, 32847, 33816, 34158, 34061, 33717, 32927, 31952, 31467, 31731, 32370, 32767, 32764, 32730, 32696, 32427, 32261, 32696, 33500, 34052, 34083, 33684, 33041, 32312, 31638, 31346, 31791, 32680, 33248, 33212, 32870, 32521, 32271, 32252, 32712, 33577, 34170, 33955, 33249, 32710, 32368, 31880, 31603, 32096, 32815, 32978, 32876, 32876, 32594, 32068, 32136, 33016, 33898, 34171, 33958, 33435, 32661, 31913, 31509, 31623, 32223, 32862, 33155, 33136, 32802], [32872, 32969, 32875, 32681, 32556, 32517, 32521, 32645, 32853, 32909, 32823, 32844, 32907, 32855, 32834, 32823, 32699, 32714, 32905, 32865, 32606, 32480, 32520, 32677, 32898, 32934, 32821, 32834, 32817, 32661, 32725, 32926, 32823, 32707, 32943, 33042, 32740, 32528, 32573, 32609, 32603, 32648, 32743, 32871, 32942, 32881, 32810, 32842, 32871, 32819, 32789, 32832, 32834, 32694, 32532, 32563, 32723, 32723, 32604, 32677, 32900, 32967, 32906, 32898, 32867, 32786, 32785, 32804, 32761, 32745, 32706, 32574, 32518, 32600, 32704, 32829, 32955, 32970, 32922, 32871, 32736, 32622, 32716, 32851, 32880, 32867, 32737, 32524, 32513, 32693, 32807, 32793, 32791, 32899, 32962, 32818, 32660, 32665, 32720, 32807], [35138, 33513, 29787, 27701, 29247, 32397, 34642, 35884, 36885, 36911, 34297, 30271, 29074, 31217, 32908, 33365, 34400, 34886, 32625, 28992, 27702, 29920, 33183, 35280, 36495, 37378, 36458, 32633, 29083, 29509, 31896, 32944, 33748, 35116, 34595, 31379, 28363, 28296, 30801, 33659, 35554, 36752, 37331, 35675, 31538, 28898, 30162, 32214, 33066, 34204, 35175, 33779, 30380, 28032, 28923, 31870, 34434, 36023, 37066, 36832, 34047, 30207, 29242, 31295, 32787, 33354, 34633, 35115, 32722, 29024, 27667, 29732, 32809, 34965, 36466, 37437, 36625, 33207, 29610, 29355, 31388, 32620, 33616, 35144, 34826, 31632, 28405, 28147, 30673, 33666, 35548, 36595, 37243, 35921, 31845, 28859, 29952, 32136, 33082, 34371], [32767, 32767, 32767, 32767, 32767, 32767, 32767, 32768, 32768, 32767, 32767, 32767, 32767, 32767, 32767, 32768, 32767, 32767, 32767, 32767, 32767, 32767, 32767, 32767, 32767, 32767, 32768, 32768, 32768, 32768, 32767, 32767, 32767, 32767, 32767, 32767, 32767, 32767, 32767, 32767, 32767, 32767, 32768, 32768, 32767, 32767, 32767, 32767, 32767, 32767, 32768, 32767, 32767, 32767, 32767, 32767, 32767, 32767, 32767, 32767, 32767, 32768, 32768, 32768, 32768, 32767, 32767, 32767, 32767, 32767, 32767, 32767, 32767, 32767, 32767, 32767, 32767, 32768, 32768, 32767, 32767, 32767, 32767, 32767, 32767, 32768, 32767, 32767, 32767, 32767, 32767, 32767, 32767, 32767, 32767, 32767, 32768, 32768, 32768, 32768]], "framecount": 12.0, "time": 1489540499937}
{"dataframe": [[32744, 32897, 32900, 32685, 32501, 32617, 32779, 32736, 32795, 33037, 33063, 32891, 32834, 32763, 32572, 32537, 32651, 32670, 32706, 32864, 32885, 32722, 32649, 32703, 32759, 32847, 32974, 33039, 33026, 32908, 32654, 32463, 32479, 32528, 32568, 32766, 33008, 32993, 32727, 32587, 32757, 32930, 32936, 32956, 32896, 32668, 32616, 32777, 32761, 32614, 32633, 32753, 32808, 32771, 32671, 32651, 32769, 32814, 32772, 32942, 33197, 33055, 32641, 32516, 32666, 32689, 32620, 32702, 32820, 32779, 32661, 32626, 32692, 32784, 32867, 32965, 33025, 32977, 32916, 32844, 32606, 32385, 32513, 32793, 32861, 32786, 32687, 32563, 32593, 32809, 32978, 33063, 33079, 32911, 32698, 32639, 32612, 32580, 32722, 32916], [31870, 31897, 32541, 33657, 34632, 34772, 34151, 33362, 32540, 31544, 30872, 31307, 32532, 33279, 33124, 32725, 32379, 31943, 31826, 32606, 33874, 34587, 34477, 33968, 33203, 32236, 31480, 31349, 31885, 32630, 33002, 32913, 32585, 32087, 31668, 31967, 33158, 34371, 34742, 34420, 33817, 32899, 31844, 31238, 31413, 32144, 32793, 32911, 32712, 32474, 32143, 31936, 32374, 33431, 34366, 34574, 34174, 33572, 32798, 31775, 31051, 31381, 32416, 33043, 32977, 32636, 32215, 31898, 32030, 32757, 33807, 34546, 34533, 34011, 33377, 32504, 31383, 30932, 31742, 32783, 33019, 32801, 32519, 32046, 31761, 32219, 33251, 34270, 34762, 34481, 33702, 32864, 31982, 31172, 31120, 32004, 32920, 33165, 32892, 32406], [32940, 33110, 32825, 32343, 32005, 31903, 32120, 32672, 33383, 33949, 33963, 33277, 32476, 32227, 32367, 32507, 32770, 33155, 33220, 32808, 32232, 31845, 31929, 32489, 33007, 33225, 33551, 33797, 33248, 32398, 32218, 32460, 32650, 32956, 33244, 33138, 32720, 32202, 31814, 31919, 32458, 32981, 33373, 33648, 33487, 32944, 32627, 32606, 32519, 32575, 33008, 33325, 33052, 32394, 31854, 31782, 32136, 32628, 33132, 33561, 33668, 33404, 33017, 32650, 32365, 32352, 32699, 33142, 33272, 32869, 32178, 31754, 31843, 32266, 32839, 33420, 33789, 33743, 33275, 32695, 32370, 32344, 32481, 32755, 33127, 33242, 32752, 32011, 31747, 32040, 32484, 32981, 33545, 33897, 33746, 33094, 32346, 32078, 32354, 32723], [32662, 32584, 32668, 32901, 33061, 33071, 33027, 32977, 32861, 32640, 32435, 32452, 32657, 32766, 32721, 32714, 32759, 32716, 32651, 32768, 32986, 33045, 32971, 32891, 32747, 32596, 32582, 32694, 32929, 33143, 32977, 32562, 32427, 32489, 32347, 32275, 32669, 33159, 33279, 33195, 33103, 32892, 32703, 32730, 32701, 32527, 32593, 32876, 32920, 32638, 32320, 32204, 32390, 32821, 33244, 33387, 33279, 33148, 32973, 32599, 32309, 32484, 32768, 32660, 32513, 32711, 32778, 32475, 32420, 32829, 33171, 33226, 33196, 33123, 32925, 32635, 32404, 32371, 32528, 32738, 32829, 32764, 32680, 32662, 32629, 32552, 32643, 33000, 33320, 33333, 33187, 33091, 32948, 32524, 31930, 31716, 32115, 32704, 33124, 33341], [32277, 32074, 32482, 33285, 33994, 34132, 33704, 33105, 32460, 31738, 31397, 31911, 32749, 33056, 32956, 32887, 32654, 32199, 32114, 32781, 33756, 34216, 33824, 33075, 32586, 32277, 31868, 31801, 32543, 33343, 33226, 32636, 32364, 32158, 31855, 32086, 32987, 33837, 34188, 34113, 33666, 32935, 32189, 31674, 31638, 32128, 32664, 32824, 32791, 32692, 32384, 32170, 32601, 33489, 34080, 34056, 33657, 33105, 32453, 31803, 31515, 31949, 32695, 32977, 32881, 32832, 32600, 32123, 32062, 32754, 33689, 34203, 34105, 33611, 32954, 32232, 31579, 31384, 31977, 32850, 33125, 32889, 32734, 32577, 32281, 32348, 33031, 33789, 34089, 33929, 33418, 32654, 31889, 31405, 31515, 32239, 32916, 33130, 33210, 33175], [32926, 32902, 32786, 32757, 32731, 32629, 32532, 32528, 32703, 32943, 33003, 32918, 32808, 32681, 32676, 32797, 32796, 32761, 32904, 32971, 32758, 32570, 32621, 32689, 32631, 32630, 32767, 32899, 32950, 32909, 32776, 32672, 32701, 32779, 32854, 32935, 32893, 32720, 32653, 32686, 32634, 32581, 32677, 32786, 32755, 32736, 32913, 33093, 32968, 32671, 32614, 32837, 32951, 32801, 32642, 32563, 32473, 32537, 32786, 32932, 32944, 32935, 32835, 32714, 32734, 32789, 32779, 32846, 32967, 32885, 32645, 32534, 32555, 32569, 32647, 32789, 32853, 32885, 32938, 32881, 32791, 32845, 32871, 32741, 32709, 32816, 32771, 32672, 32757, 32708, 32411, 32430, 32841, 33023, 32878, 32807, 32895, 32970, 32928, 32793], [35453, 33733, 30018, 27824, 28849, 31801, 34580, 36253, 37126, 36991, 34359, 30166, 28790, 30893, 32564, 33317, 34926, 35473, 32847, 29180, 27902, 29698, 32641, 34976, 36414, 37044, 36194, 33158, 29792, 29330, 31276, 32840, 33981, 35273, 34920, 31863, 28505, 28111, 30631, 33354, 35054, 36411, 37200, 35712, 31845, 29267, 30457, 32506, 33070, 33904, 35128, 34002, 30419, 27864, 28666, 31531, 34180, 35909, 37012, 37145, 34867, 30780, 29026, 30806, 32482, 33164, 34606, 35258, 32873, 29205, 27793, 29603, 32629, 34916, 36336, 37310, 36815, 33430, 29447, 29140, 31578, 32901, 33526, 34826, 34769, 32052, 28864, 28141, 30365, 33331, 35228, 36503, 37370, 35926, 31776, 28973, 30247, 32476, 33144, 33958], [32767, 32767, 32767, 32767, 32767, 32767, 32767, 32767, 32767, 32767, 32767, 32767, 32768, 32768, 32767, 32767, 32767, 32767, 32767, 32767, 32768, 32767, 32767, 32767, 32767, 32767, 32767, 32767, 32767, 32767, 32767, 32768, 32768, 32768, 32768, 32767, 32767, 32767, 32767, 32767, 32767, 32767, 32767, 32767, 32767, 32767, 32767, 32768, 32768, 32767, 32767, 32767, 32767, 32767, 32767, 32768, 32767, 32767, 32767, 32767, 32767, 32767, 32767, 32767, 32767, 32767, 32768, 32768, 32768, 32768, 32767, 32767, 32767, 32767, 32767, 32767, 32767, 32767, 32767, 32767, 32767, 32767, 32768, 32768, 32767, 32767, 32767, 32767, 32767, 32767, 32768, 32767, 32767, 32767, 32767, 32767, 32767, 32767, 32767, 32767]], "framecount": 13.0, "time": 1489540500046}
{"dataframe": [[32869, 32669, 32585, 32636, 32674, 32658, 32747, 32995, 33116, 32976, 32865, 32873, 32777, 32620, 32558, 32505, 32528, 32742, 32874, 32784, 32750, 32828, 32863, 32912, 32947, 32831, 32715, 32728, 32673, 32598, 32787, 32967, 32749, 32554, 32755, 32894, 32756, 32702, 32691, 32571, 32660, 32968, 33067, 32946, 32865, 32803, 32678, 32570, 32585, 32747, 32923, 32898, 32691, 32525, 32532, 32686, 32862, 32929, 32951, 33016, 32965, 32719, 32551, 32666, 32818, 32723, 32639, 32844, 32950, 32668, 32468, 32642, 32776, 32695, 32750, 32949, 33018, 33048, 33040, 32770, 32517, 32590, 32650, 32587, 32715, 32872, 32790, 32718, 32748, 32667, 32641, 32838, 32963, 32928, 32946, 32944, 32828, 32721, 32616, 32524], [31972, 31916, 32388, 33365, 34439, 34784, 34189, 33364, 32676, 31867, 31197, 31380, 32220, 32804, 32943, 32934, 32619, 31998, 31805, 32565, 33762, 34479, 34456, 34013, 33327, 32409, 31551, 31272, 31786, 32616, 33048, 32918, 32519, 32026, 31652, 31921, 33066, 34389, 34927, 34559, 33788, 32911, 31962, 31142, 31026, 31917, 33013, 33313, 32952, 32480, 32002, 31723, 32124, 33230, 34344, 34753, 34437, 33776, 32869, 31721, 30936, 31262, 32336, 33025, 33005, 32736, 32359, 31888, 31826, 32614, 33828, 34589, 34598, 34141, 33392, 32373, 31377, 31035, 31689, 32675, 33071, 32926, 32654, 32225, 31799, 31946, 32879, 34080, 34729, 34496, 33814, 33120, 32274, 31313, 31066, 31941, 32915, 33041, 32743, 32485], [32956, 33085, 32974, 32550, 32138, 32028, 32208, 32660, 33220, 33529, 33551, 33384, 32923, 32408, 32288, 32451, 32635, 32970, 33311, 33067, 32294, 31867, 32089, 32420, 32698, 33182, 33643, 33600, 33099, 32636, 32503, 32565, 32651, 32819, 33072, 33100, 32689, 32139, 31890, 32004, 32365, 32920, 33505, 33812, 33601, 32976, 32426, 32350, 32605, 32843, 33039, 33175, 32913, 32224, 31750, 31919, 32383, 32752, 33127, 33577, 33747, 33360, 32750, 32450, 32453, 32515, 32740, 33118, 33197, 32781, 32267, 32008, 31985, 32180, 32683, 33379, 33835, 33670, 33042, 32527, 32405, 32492, 32672, 32967, 33207, 33094, 32608, 32136, 32010, 32119, 32297, 32675, 33285, 33732, 33606, 33057, 32641, 32564, 32585, 32631], [33274, 32965, 32735, 32765, 32870, 32839, 32755, 32777, 32770, 32567, 32414, 32569, 32819, 32931, 32988, 32942, 32687, 32461, 32445, 32559, 32841, 33212, 33290, 33035, 32790, 32650, 32561, 32571, 32634, 32684, 32752, 32760, 32668, 32646, 32697, 32673, 32723, 32981, 33181, 33144, 33007, 32847, 32657, 32482, 32373, 32458, 32794, 33047, 32873, 32482, 32339, 32530, 32799, 33003, 33176, 33309, 33295, 33090, 32774, 32421, 32144, 32147, 32445, 32773, 32959, 33019, 32952, 32792, 32645, 32591, 32725, 33020, 33177, 33055, 32835, 32615, 32450, 32482, 32711, 32936, 32964, 32832, 32711, 32554, 32310, 32288, 32650, 33105, 33418, 33526, 33286, 32729, 32242, 32153, 32394, 32724, 32963, 32996, 32860, 32713], [32719, 32179, 32204, 32850, 33567, 33826, 33601, 33183, 32706, 32174, 31808, 31924, 32476, 33033, 33188, 32878, 32382, 32008, 32023, 32668, 33651, 34159, 33986, 33609, 33097, 32293, 31606, 31523, 32010, 32640, 32982, 33056, 33049, 32752, 32200, 32125, 32824, 33647, 33984, 33835, 33397, 32793, 32139, 31645, 31717, 32418, 32970, 32882, 32725, 32728, 32431, 32131, 32460, 33125, 33695, 34206, 34339, 33667, 32581, 31679, 31173, 31349, 32145, 32799, 33031, 33166, 33029, 32505, 32342, 32927, 33582, 33818, 33743, 33366, 32752, 32180, 31726, 31577, 32123, 32991, 33272, 33021, 32903, 32712, 32106, 31874, 32621, 33580, 34011, 34041, 33713, 32942, 32084, 31569, 31609, 32245, 32960, 33081, 32819, 32682], [32705, 32728, 32728, 32631, 32604, 32686, 32693, 32668, 32755, 32880, 32943, 32880, 32721, 32671, 32752, 32801, 32876, 33000, 32956, 32781, 32700, 32599, 32396, 32395, 32640, 32815, 32914, 33051, 33034, 32836, 32722, 32733, 32780, 32856, 32869, 32780, 32691, 32619, 32572, 32609, 32682, 32770, 32895, 32899, 32757, 32729, 32796, 32763, 32811, 33034, 33070, 32858, 32720, 32613, 32420, 32372, 32489, 32625, 32852, 33089, 33118, 33001, 32887, 32797, 32711, 32633, 32684, 32860, 32847, 32611, 32511, 32595, 32678, 32802, 32961, 32993, 32894, 32751, 32624, 32654, 32831, 32847, 32672, 32683, 32914, 33007, 32880, 32704, 32590, 32606, 32647, 32585, 32631, 32899, 33032, 32904, 32833, 32862, 32772, 32638], [35105, 34080, 30644, 27910, 28540, 31569, 34211, 35658, 36778, 37171, 34991, 30859, 29049, 30889, 32614, 33012, 34256, 35282, 33278, 29496, 27836, 29515, 32427, 34721, 36244, 37132, 36628, 33669, 29926, 29207, 31255, 32683, 33518, 34965, 35113, 32365, 28792, 27831, 30187, 33315, 35196, 36319, 37149, 36104, 32382, 29310, 29973, 32016, 32854, 33923, 35373, 34437, 30831, 27962, 28368, 31036, 33767, 35781, 37150, 37418, 35320, 31235, 28980, 30396, 32233, 32908, 34213, 35296, 33516, 29790, 27815, 29277, 32373, 34792, 36155, 37098, 36962, 34022, 29791, 28837, 31216, 32807, 33340, 34703, 35156, 32584, 28959, 27854, 30050, 33221, 35258, 36339, 37142, 36303, 32600, 29235, 29817, 31978, 32675, 33583], [32767, 32768, 32768, 32768, 32768, 32767, 32767, 32767, 32767, 32767, 32767, 32767, 32767, 32767, 32767, 32767, 32767, 32768, 32768, 32767, 32767, 32767, 32767, 32767, 32767, 32768, 32767, 32767, 32767, 32767, 32767, 32767, 32767, 32767, 32767, 32767, 32768, 32768, 32768, 32768, 32767, 32767, 32767, 32767, 32767, 32767, 32767, 32767, 32767, 32767, 32767, 32767, 32768, 32768, 32767, 32767, 32767, 32767, 32767, 32767, 32768, 32767, 32767, 32767, 32767, 32767, 32767, 32767, 32767, 32767, 32767, 32768, 32768, 32768, 32768, 32767, 32767, 32767, 32767, 32767, 32767, 32767, 32767, 32767, 32767, 32767, 32767, 32768, 32768, 32767, 32767, 32767, 32767, 32767, 32767, 32768, 32767, 32767, 32767, 32767]], "framecount": 14.0, "time": 1489540500140}
{"dataframe": [[32597, 32717, 32688, 32673, 32815, 32907, 32820, 32740, 32806, 32961, 33039, 32896, 32647, 32565, 32663, 32730, 32701, 32679, 32744, 32815, 32763, 32675, 32699, 32777, 32880, 32986, 32933, 32820, 32847, 32801, 32579, 32513, 32707, 32856, 32773, 32661, 32763, 32891, 32739, 32506, 32590, 32883, 33001, 32967, 32989, 32989, 32842, 32605, 32437, 32510, 32745, 32836, 32744, 32709, 32778, 32783, 32691, 32664, 32812, 33038, 33121, 32942, 32658, 32562, 32689, 32749, 32683, 32768, 32911, 32752, 32486, 32508, 32686, 32801, 32899, 32956, 32969, 33023, 32959, 32697, 32573, 32688, 32706, 32613, 32718, 32918, 32820, 32491, 32431, 32745, 32957, 32900, 32915, 33008, 32903, 32751, 32809, 32876, 32720, 32522], [32031, 31674, 32178, 33415, 34498, 34799, 34264, 33397, 32722, 32089, 31379, 31300, 32134, 32923, 33010, 32728, 32301, 31829, 31810, 32545, 33687, 34587, 34769, 34268, 33466, 32534, 31499, 30918, 31469, 32572, 32988, 32803, 32720, 32433, 31792, 31823, 32998, 34271, 34684, 34389, 33801, 33058, 32241, 31475, 31179, 31764, 32694, 33094, 32926, 32474, 31922, 31739, 32248, 33232, 34286, 34904, 34690, 33841, 32816, 31742, 30884, 30985, 32064, 32974, 33103, 32930, 32633, 32041, 31683, 32332, 33718, 34701, 34694, 34110, 33378, 32470, 31499, 31064, 31552, 32441, 32948, 32991, 32812, 32415, 31954, 31925, 32656, 33816, 34610, 34629, 34088, 33236, 32182, 31297, 31167, 31867, 32673, 32973, 32856, 32489], [32887, 33218, 33133, 32506, 31886, 31771, 32059, 32515, 33092, 33611, 33763, 33418, 32827, 32535, 32637, 32648, 32583, 32893, 33244, 32926, 32182, 31792, 31944, 32352, 32831, 33300, 33640, 33641, 33177, 32612, 32446, 32564, 32645, 32823, 33145, 33181, 32724, 32143, 31821, 31884, 32356, 32972, 33352, 33560, 33644, 33303, 32721, 32429, 32406, 32517, 32854, 33203, 33175, 32664, 31967, 31664, 31980, 32537, 33081, 33642, 33893, 33455, 32752, 32446, 32463, 32556, 32853, 33161, 33088, 32774, 32403, 31925, 31712, 32120, 32761, 33261, 33734, 33897, 33320, 32578, 32439, 32583, 32544, 32627, 33046, 33291, 32865, 32072, 31677, 31925, 32419, 32887, 33391, 33801, 33745, 33260, 32793, 32491, 32257, 32311], [32598, 32489, 32522, 32761, 33000, 33127, 33210, 33167, 32885, 32521, 32343, 32419, 32627, 32828, 32888, 32765, 32664, 32660, 32581, 32573, 32869, 33151, 33121, 33004, 32944, 32796, 32612, 32612, 32735, 32778, 32752, 32641, 32375, 32219, 32441, 32821, 33128, 33346, 33347, 33115, 32888, 32726, 32523, 32335, 32332, 32605, 32949, 32970, 32721, 32672, 32788, 32671, 32459, 32544, 32897, 33244, 33330, 33117, 32915, 32838, 32615, 32337, 32344, 32491, 32584, 32745, 32856, 32714, 32567, 32698, 32989, 33248, 33341, 33146, 32830, 32677, 32568, 32374, 32364, 32567, 32692, 32770, 32852, 32748, 32603, 32698, 32884, 32994, 33111, 33149, 33018, 32868, 32696, 32412, 32263, 32480, 32834, 33014, 33006, 32776], [32493, 32187, 32327, 33063, 33819, 34102, 33859, 33311, 32658, 31932, 31423, 31701, 32568, 33050, 32950, 32901, 32842, 32365, 32056, 32561, 33382, 33878, 33959, 33543, 32802, 32323, 32138, 31950, 32127, 32785, 33087, 32705, 32300, 32256, 32422, 32685, 33094, 33624, 33960, 33759, 33162, 32581, 32155, 31838, 31867, 32417, 32979, 33058, 32934, 32815, 32428, 31978, 32131, 32908, 33721, 34182, 34089, 33374, 32501, 31984, 31749, 31787, 32326, 32955, 33084, 32887, 32647, 32298, 32090, 32460, 33255, 33921, 34148, 33903, 33258, 32417, 31683, 31404, 31852, 32705, 33162, 33044, 32783, 32463, 32097, 32148, 32860, 33727, 34110, 33960, 33563, 32970, 32201, 31595, 31553, 32110, 32804, 33082, 32903, 32596], [32650, 32793, 32934, 32904, 32660, 32493, 32627, 32762, 32709, 32759, 32924, 32944, 32886, 32786, 32611, 32639, 32862, 32865, 32765, 32885, 32917, 32667, 32548, 32656, 32650, 32593, 32735, 32907, 32903, 32858, 32852, 32782, 32717, 32811, 32976, 33011, 32846, 32573, 32381, 32391, 32584, 32823, 32934, 32921, 32922, 32897, 32785, 32739, 32785, 32771, 32778, 32898, 32880, 32644, 32540, 32627, 32637, 32655, 32799, 32850, 32835, 32912, 32903, 32793, 32783, 32752, 32685, 32844, 32991, 32784, 32581, 32648, 32641, 32524, 32641, 32865, 32911, 32923, 32911, 32714, 32632, 32850, 32942, 32788, 32765, 32880, 32833, 32628, 32505, 32602, 32769, 32741, 32658, 32824, 32978, 32809, 32683, 32867, 32977, 32850], [35210, 34572, 31174, 28292, 28498, 31160, 33908, 35508, 36582, 37209, 35494, 31319, 28917, 30406, 32334, 33028, 34344, 35395, 33494, 29702, 27838, 29382, 32357, 34641, 36006, 36941, 36814, 34112, 30026, 28803, 31041, 32976, 33720, 34798, 34972, 32391, 28806, 27911, 30397, 33383, 35029, 36141, 37034, 36089, 32545, 29342, 29685, 31940, 33223, 34162, 35227, 34320, 30925, 28014, 28337, 31143, 33895, 35634, 36892, 37336, 35278, 31099, 28895, 30403, 32317, 33146, 34476, 35411, 33629, 29996, 27885, 29008, 31846, 34404, 36204, 37226, 36808, 34005, 30139, 29034, 31139, 32913, 33635, 34792, 35004, 32420, 28929, 28043, 30137, 32756, 34726, 36371, 37301, 36378, 33023, 29483, 29346, 31731, 33146, 33874], [32767, 32767, 32767, 32767, 32767, 32767, 32768, 32768, 32768, 32768, 32767, 32767, 32767, 32767, 32767, 32767, 32767, 32767, 32767, 32767, 32767, 32767, 32768, 32768, 32767, 32767, 32767, 32767, 32767, 32767, 32768, 32767, 32767, 32767, 32767, 32767, 32767, 32767, 32767, 32767, 32767, 32768, 32768, 32768, 32768, 32767, 32767, 32767, 32767, 32767, 32767, 32767, 32767, 32767, 32767, 32767, 32767, 32768, 32768, 32767, 32767, 32767, 32767, 32767, 32767, 32768, 32767, 32767, 32767, 32767, 32767, 32767, 32767, 32767, 32767, 32767, 32768, 32768, 32768, 32768, 32767, 32767, 32767, 32767, 32767, 32767, 32767, 32767, 32767, 32767, 32767, 32767, 32768, 32768, 32767, 32767, 32767, 32767, 32767, 32767]], "framecount": 15.0, "time": 1489540500249}
{"dataframe": [[32519, 32681, 32816, 32748, 32583, 32648, 32887, 32894, 32719, 32806, 33115, 33184, 32968, 32766, 32558, 32292, 32318, 32689, 32911, 32860, 32808, 32767, 32715, 32785, 32923, 32987, 32960, 32821, 32653, 32680, 32795, 32687, 32512, 32611, 32827, 32857, 32787, 32779, 32781, 32747, 32719, 32743, 32848, 32957, 32947, 32837, 32710, 32639, 32699, 32772, 32724, 32691, 32710, 32655, 32650, 32742, 32745, 32766, 32937, 33028, 32967, 32924, 32852, 32690, 32574, 32557, 32597, 32688, 32789, 32856, 32865, 32757, 32595, 32574, 32750, 32973, 33065, 33007, 32891, 32724, 32581, 32641, 32793, 32760, 32648, 32693, 32722, 32587, 32581, 32806, 32944, 32907, 32880, 32917, 32951, 32879, 32734, 32738, 32798, 32630], [31967, 31759, 32338, 33487, 34441, 34708, 34368, 33613, 32623, 31716, 31210, 31400, 32194, 32874, 33014, 32848, 32497, 32005, 31838, 32437, 33561, 34453, 34609, 34155, 33451, 32634, 31714, 31113, 31487, 32486, 32983, 32857, 32692, 32390, 31858, 31784, 32642, 33932, 34774, 34766, 34105, 33182, 32184, 31267, 31007, 31734, 32673, 33089, 33128, 32796, 32036, 31557, 31992, 33089, 34185, 34748, 34624, 33970, 32976, 31879, 31142, 31267, 32070, 32695, 32836, 32809, 32540, 31998, 31852, 32529, 33601, 34430, 34669, 34295, 33539, 32608, 31601, 30983, 31390, 32455, 33088, 33022, 32716, 32308, 31835, 31792, 32631, 33888, 34603, 34588, 34242, 33524, 32315, 31194, 30964, 31690, 32604, 33078, 33097, 32721], [32784, 33213, 33100, 32521, 31920, 31695, 31991, 32634, 33316, 33863, 34083, 33644, 32735, 32200, 32253, 32348, 32493, 32932, 33227, 33004, 32504, 32056, 31925, 32277, 32847, 33250, 33498, 33580, 33273, 32800, 32544, 32408, 32409, 32777, 33169, 33121, 32737, 32216, 31802, 31940, 32513, 32951, 33302, 33755, 33795, 33169, 32500, 32223, 32262, 32596, 33034, 33214, 33111, 32749, 32159, 31790, 31957, 32407, 32939, 33514, 33796, 33514, 32961, 32543, 32375, 32511, 32919, 33261, 33176, 32643, 32043, 31872, 32098, 32266, 32487, 33117, 33725, 33765, 33389, 32939, 32642, 32576, 32564, 32577, 32782, 32985, 32800, 32304, 31964, 32019, 32342, 32803, 33330, 33710, 33663, 33189, 32709, 32537, 32493, 32471], [32283, 32006, 32438, 33171, 33525, 33479, 33284, 33043, 32797, 32445, 32006, 31960, 32539, 33119, 33143, 32866, 32669, 32553, 32505, 32634, 32894, 33124, 33227, 33152, 32976, 32850, 32662, 32360, 32284, 32503, 32681, 32789, 32888, 32768, 32525, 32581, 32917, 33170, 33212, 33080, 32879, 32779, 32746, 32595, 32375, 32352, 32602, 32864, 32877, 32739, 32675, 32686, 32722, 32837, 33024, 33198, 33232, 32994, 32594, 32347, 32369, 32562, 32781, 32865, 32828, 32813, 32748, 32504, 32324, 32566, 33087, 33324, 33081, 32877, 33129, 33315, 32833, 32204, 32192, 32475, 32464, 32406, 32620, 32843, 32886, 32907, 32976, 33036, 33122, 33203, 33087, 32798, 32621, 32510, 32268, 32214, 32569, 32882, 32889, 32830], [32315, 32152, 32436, 33283, 34116, 34274, 33842, 33229, 32496, 31728, 31321, 31575, 32363, 33150, 33440, 33200, 32665, 32072, 31827, 32359, 33455, 34261, 34255, 33693, 33019, 32343, 31657, 31377, 31901, 32702, 33042, 33069, 33065, 32784, 32231, 32022, 32600, 33513, 33981, 33953, 33703, 33087, 32131, 31438, 31535, 32265, 32934, 33065, 32850, 32702, 32607, 32353, 32293, 32904, 33706, 33973, 33804, 33447, 32821, 32007, 31410, 31568, 32476, 33218, 33216, 32909, 32584, 32125, 31911, 32443, 33424, 34134, 34180, 33650, 32972, 32439, 31969, 31723, 32061, 32600, 32760, 32813, 32934, 32644, 32093, 32108, 32812, 33591, 34011, 33989, 33573, 32982, 32394, 31825, 31581, 32026, 32754, 33063, 32926, 32620], [32764, 32728, 32675, 32767, 32863, 32696, 32504, 32548, 32650, 32724, 32910, 33077, 32992, 32780, 32667, 32649, 32713, 32888, 33010, 32897, 32667, 32541, 32560, 32656, 32723, 32720, 32792, 32933, 32915, 32796, 32771, 32751, 32726, 32846, 32936, 32777, 32640, 32755, 32832, 32679, 32516, 32531, 32697, 32885, 32976, 32979, 32895, 32723, 32672, 32822, 32853, 32705, 32714, 32847, 32789, 32614, 32582, 32673, 32738, 32750, 32799, 32891, 32893, 32852, 32901, 32857, 32678, 32719, 32909, 32804, 32546, 32529, 32626, 32681, 32811, 32913, 32857, 32819, 32839, 32747, 32639, 32737, 32909, 32936, 32903, 32873, 32738, 32600, 32611, 32641, 32583, 32564, 32677, 32844, 32976, 33028, 32980, 32872, 32738, 32634], [35102, 34676, 31360, 28126, 28107, 30785, 33705, 35572, 36667, 37201, 35746, 31772, 29058, 30302, 32316, 32972, 34181, 35323, 33639, 30012, 27871, 28724, 31528, 34508, 36450, 37323, 37175, 34683, 30424, 28698, 30597, 32360, 33237, 34875, 35414, 32738, 29028, 27827, 29781, 32774, 34988, 36450, 37472, 36713, 32983, 29225, 29388, 31708, 32774, 33681, 35213, 34705, 31334, 28217, 28269, 30956, 33723, 35388, 36653, 37454, 35805, 31578, 28940, 30197, 32106, 32833, 34197, 35496, 33974, 30305, 27967, 28771, 31534, 34269, 36105, 37122, 36973, 34427, 30407, 29012, 31108, 32863, 33334, 34523, 35190, 32853, 29030, 27608, 29666, 32792, 34990, 36393, 37304, 36606, 33221, 29565, 29437, 31621, 32733, 33561], [32768, 32767, 32767, 32767, 32767, 32767, 32767, 32767, 32767, 32767, 32767, 32768, 32768, 32768, 32768, 32767, 32767, 32767, 32767, 32767, 32767, 32767, 32767, 32767, 32767, 32767, 32767, 32768, 32768, 32767, 32767, 32767, 32767, 32767, 32767, 32768, 32767, 32767, 32767, 32767, 32767, 32767, 32767, 32767, 32767, 32767, 32768, 32768, 32768, 32768, 32767, 32767, 32767, 32767, 32767, 32767, 32767, 32767, 32767, 32767, 32767, 32767, 32768, 32768, 32767, 32767, 32767, 32767, 32767, 32767, 32768, 32767, 32767, 32767, 32767, 32767, 32767, 32767, 32767, 32767, 32767, 32768, 32768, 32768, 32768, 32767, 32767, 32767, 32767, 32767, 32767, 32767, 32767, 32767, 32767, 32767, 32767, 32768, 32768, 32767]], "framecount": 16.0, "time": 1489540500343}
{"dataframe": [[32454, 32554, 32704, 32753, 32790, 32763, 32698, 32790, 32990, 33067, 33027, 32971, 32810, 32570, 32514, 32646, 32681, 32581, 32602, 32785, 32892, 32824, 32718, 32703, 32784, 32891, 32983, 33028, 32917, 32684, 32599, 32716, 32736, 32596, 32618, 32834, 32867, 32665, 32570, 32673, 32795, 32857, 32891, 32971, 33041, 32927, 32750, 32724, 32713, 32627, 32591, 32592, 32629, 32733, 32725, 32600, 32665, 32923, 33100, 33157, 33131, 32916, 32592, 32451, 32565, 32678, 32640, 32644, 32801, 32888, 32791, 32695, 32721, 32724, 32661, 32781, 33067, 33118, 32920, 32807, 32764, 32631, 32519, 32547, 32665, 32774, 32784, 32710, 32702, 32805, 32836, 32757, 32811, 33020, 33104, 32940, 32677, 32520, 32532, 32584], [32077, 31660, 31953, 33008, 34291, 34913, 34569, 33792, 32950, 31918, 31011, 31115, 32241, 33096, 32980, 32581, 32332, 32022, 31895, 32383, 33384, 34445, 34971, 34587, 33596, 32503, 31522, 30970, 31303, 32242, 32851, 32871, 32784, 32631, 32205, 31999, 32646, 33818, 34568, 34502, 33976, 33297, 32371, 31327, 30925, 31573, 32516, 33012, 33192, 33057, 32389, 31725, 31926, 33020, 34163, 34564, 34261, 33714, 32999, 32039, 31274, 31356, 32167, 32789, 32831, 32792, 32756, 32290, 31764, 32107, 33274, 34308, 34641, 34364, 33660, 32728, 31834, 31235, 31312, 32116, 32885, 33029, 32810, 32458, 31962, 31796, 32553, 33863, 34656, 34579, 34111, 33395, 32302, 31277, 31011, 31661, 32644, 33152, 33057, 32747], [32684, 33063, 33175, 32778, 32111, 31752, 32035, 32594, 32969, 33312, 33687, 33583, 32968, 32549, 32525, 32573, 32759, 33139, 33255, 32887, 32334, 31827, 31568, 31838, 32529, 33242, 33825, 34085, 33691, 32951, 32552, 32444, 32356, 32532, 32893, 32943, 32670, 32327, 32037, 32029, 32385, 32867, 33337, 33700, 33668, 33229, 32763, 32410, 32202, 32439, 33015, 33304, 33097, 32600, 31999, 31703, 32026, 32604, 33058, 33501, 33805, 33560, 32942, 32512, 32358, 32338, 32593, 33097, 33400, 33144, 32428, 31809, 31784, 32169, 32565, 33001, 33496, 33762, 33580, 33075, 32624, 32432, 32415, 32611, 33007, 33154, 32721, 32092, 31861, 32077, 32427, 32801, 33293, 33779, 33830, 33270, 32631, 32417, 32407, 32419], [32767, 32666, 32702, 32898, 33098, 33206, 33075, 32761, 32665, 32719, 32505, 32334, 32571, 32737, 32668, 32883, 33215, 33050, 32606, 32376, 32315, 32452, 32984, 33519, 33463, 33035, 32775, 32578, 32324, 32359, 32604, 32661, 32662, 32748, 32686, 32594, 32796, 33086, 33155, 33127, 33066, 32843, 32608, 32535, 32509, 32557, 32797, 32933, 32737, 32544, 32546, 32535, 32584, 32862, 33106, 33145, 33155, 33094, 32839, 32592, 32500, 32479, 32543, 32725, 32883, 32920, 32805, 32498, 32246, 32451, 32958, 33250, 33236, 33143, 33037, 32862, 32575, 32326, 32427, 32739, 32762, 32602, 32705, 32903, 32774, 32465, 32478, 32950, 33445, 33470, 33065, 32646, 32417, 32314, 32351, 32560, 32800, 32949, 32981, 32855], [32266, 32133, 32461, 33105, 33734, 34035, 33885, 33478, 32940, 32147, 31406, 31502, 32391, 33004, 32953, 32831, 32765, 32446, 32136, 32377, 33117, 33806, 34085, 33913, 33342, 32611, 32016, 31664, 31724, 32249, 32821, 33029, 32875, 32553, 32305, 32334, 32743, 33487, 34139, 34123, 33479, 32782, 32249, 31730, 31511, 32051, 32891, 33166, 32966, 32802, 32531, 32064, 32075, 32954, 33921, 34130, 33794, 33407, 32833, 31983, 31409, 31610, 32365, 33046, 33317, 33235, 32840, 32213, 31764, 32022, 33028, 34019, 34241, 33870, 33380, 32722, 31842, 31289, 31680, 32646, 33194, 33191, 33072, 32649, 31946, 31809, 32539, 33449, 33995, 34099, 33774, 33188, 32529, 31793, 31383, 31880, 32737, 32986, 32893, 32951], [32696, 32858, 32866, 32740, 32692, 32670, 32543, 32493, 32647, 32801, 32933, 33136, 33131, 32853, 32673, 32585, 32431, 32527, 32927, 33108, 32951, 32794, 32676, 32534, 32533, 32672, 32800, 32906, 32934, 32806, 32671, 32678, 32756, 32867, 33015, 33041, 32862, 32613, 32435, 32444, 32634, 32791, 32829, 32860, 32878, 32865, 32876, 32799, 32615, 32629, 32850, 32930, 32884, 32901, 32843, 32643, 32543, 32582, 32557, 32533, 32737, 33009, 33006, 32857, 32879, 32930, 32781, 32667, 32798, 32914, 32806, 32647, 32551, 32475, 32532, 32765, 32908, 32884, 32901, 32925, 32823, 32711, 32661, 32712, 32972, 33150, 32882, 32539, 32557, 32612, 32458, 32482, 32794, 32956, 32880, 32903, 32996, 32899, 32717, 32684], [35123, 34895, 31672, 28315, 28000, 30610, 33604, 35427, 36597, 37294, 35843, 31927, 29277, 30300, 32085, 32722, 33958, 35291, 33977, 30374, 27862, 28687, 31795, 34546, 35891, 36770, 37194, 35002, 30584, 28772, 30800, 32426, 32899, 34549, 35592, 33238, 29402, 27862, 29458, 32340, 34775, 36319, 37200, 36811, 33760, 29708, 28964, 31274, 32836, 33689, 35101, 34880, 31738, 28481, 28154, 30575, 33494, 35439, 36545, 37047, 35744, 32088, 29324, 30238, 32165, 32697, 33748, 35380, 34336, 30554, 28003, 28841, 31455, 33894, 35705, 36923, 37154, 35083, 30993, 28929, 30673, 32528, 32946, 34167, 35382, 33587, 29715, 27830, 29413, 32270, 34510, 36149, 37229, 36747, 33716, 29951, 29191, 31231, 32793, 33724], [32767, 32767, 32767, 32767, 32767, 32768, 32767, 32767, 32767, 32767, 32767, 32767, 32767, 32767, 32767, 32767, 32768, 32768, 32768, 32768, 32767, 32767, 32767, 32767, 32767, 32767, 32767, 32767, 32767, 32767, 32767, 32767, 32768, 32768, 32767, 32767, 32767, 32767, 32767, 32767, 32768, 32767, 32767, 32767, 32767, 32767, 32767, 32767, 32767, 32767, 32767, 32768, 32768, 32768, 32768, 32767, 32767, 32767, 32767, 32767, 32767, 32767, 32767, 32767, 32767, 32767, 32767, 32768, 32768, 32767, 32767, 32767, 32767, 32767, 32767, 32768, 32767, 32767, 32767, 32767, 32767, 32767, 32767, 32767, 32767, 32767, 32768, 32768, 32768, 32768, 32767, 32767, 32767, 32767, 32767, 32767, 32767, 32767, 32767, 32767]], "framecount": 17.0, "time": 1489540500468}
{"dataframe": [[32653, 32873, 33051, 32851, 32526, 32475, 32612, 32831, 33072, 33052, 32833, 32780, 32831, 32801, 32727, 32591, 32509, 32722, 33006, 32949, 32647, 32475, 32542, 32681, 32792, 32968, 33132, 33028, 32776, 32706, 32753, 32712, 32641, 32639, 32726, 32870, 32859, 32595, 32441, 32629, 32821, 32825, 32911, 33116, 33129, 32899, 32705, 32657, 32620, 32569, 32577, 32634, 32715, 32745, 32690, 32779, 33022, 33032, 32822, 32771, 32791, 32707, 32779, 32910, 32718, 32516, 32638, 32717, 32687, 32873, 32997, 32732, 32549, 32748, 32877, 32815, 32903, 32985, 32777, 32567, 32607, 32702, 32722, 32789, 32950, 33035, 32829, 32476, 32402, 32617, 32784, 32865, 32922, 32885, 32868, 32942, 32888, 32761, 32800, 32811], [32259, 31680, 31772, 32965, 34360, 34838, 34409, 33666, 32864, 32037, 31374, 31334, 32071, 32820, 32909, 32736, 32644, 32248, 31732, 32077, 33359, 34462, 34722, 34366, 33625, 32623, 31645, 31039, 31260, 32339, 33266, 33269, 32824, 32340, 31751, 31618, 32514, 33830, 34581, 34564, 34079, 33351, 32463, 31544, 31123, 31750, 32768, 33001, 32700, 32605, 32320, 31705, 31787, 32961, 34262, 34779, 34482, 33832, 33166, 32326, 31291, 30916, 31723, 32761, 33102, 32963, 32601, 32027, 31720, 32213, 33389, 34534, 34879, 34352, 33516, 32636, 31622, 30932, 31289, 32374, 33097, 33141, 32891, 32438, 31875, 31736, 32438, 33714, 34642, 34581, 33983, 33425, 32691, 31697, 31137, 31508, 32318, 32811, 32867, 32685], [32662, 33018, 33106, 32803, 32268, 31918, 32062, 32456, 32843, 33377, 33875, 33725, 33019, 32499, 32350, 32343, 32558, 32945, 33145, 33032, 32631, 32080, 31825, 32114, 32644, 33146, 33589, 33752, 33406, 32826, 32471, 32362, 32335, 32554, 33108, 33469, 33085, 32277, 31848, 31960, 32190, 32515, 33187, 33877, 33914, 33248, 32593, 32446, 32479, 32406, 32592, 33122, 33280, 32737, 32159, 32012, 32031, 32220, 32894, 33679, 33873, 33483, 32977, 32608, 32410, 32363, 32472, 32780, 33143, 33185, 32732, 32131, 31865, 32051, 32506, 33062, 33586, 33802, 33442, 32776, 32421, 32447, 32515, 32695, 33105, 33299, 32910, 32240, 31807, 31858, 32296, 32791, 33185, 33618, 33864, 33418, 32630, 32356, 32521, 32586], [32660, 32564, 32603, 32797, 33053, 33076, 32911, 32915, 32972, 32770, 32499, 32415, 32490, 32692, 32861, 32756, 32588, 32673, 32788, 32760, 32894, 33211, 33268, 32954, 32624, 32565, 32643, 32567, 32506, 32718, 32870, 32724, 32626, 32705, 32721, 32711, 32863, 33042, 33040, 32933, 32843, 32763, 32755, 32810, 32749, 32588, 32467, 32396, 32486, 32791, 32993, 32887, 32766, 32870, 33012, 33063, 33099, 32971, 32617, 32408, 32449, 32512, 32656, 32872, 32869, 32751, 32784, 32736, 32526, 32610, 32960, 33057, 33002, 33122, 33093, 32723, 32464, 32465, 32457, 32514, 32763, 32964, 32926, 32731, 32575, 32571, 32705, 32931, 33111, 33099, 33006, 32933, 32693, 32335, 32330, 32778, 33086, 32867, 32545, 32545], [32683, 32021, 31963, 32854, 33818, 34200, 34056, 33553, 32911, 32264, 31571, 31271, 31872, 32792, 33175, 33079, 32807, 32483, 32350, 32568, 33093, 33709, 33967, 33658, 33118, 32607, 32040, 31623, 31848, 32566, 33052, 33084, 32900, 32518, 32085, 32083, 32675, 33452, 33921, 33959, 33721, 33265, 32566, 31802, 31447, 31808, 32504, 32920, 33017, 32981, 32684, 32225, 32193, 32821, 33598, 34042, 34097, 33673, 32771, 31912, 31537, 31612, 32113, 32848, 33211, 33034, 32728, 32432, 32178, 32394, 33178, 33900, 34050, 33724, 33201, 32593, 31901, 31389, 31631, 32596, 33284, 33183, 32930, 32806, 32345, 31823, 32193, 33358, 34186, 34159, 33672, 33039, 32292, 31615, 31453, 32079, 32968, 33299, 33108, 32844], [32785, 32906, 32932, 32773, 32566, 32525, 32550, 32536, 32665, 32885, 32950, 32952, 32963, 32815, 32648, 32749, 32944, 32924, 32798, 32761, 32679, 32470, 32430, 32687, 32896, 32854, 32761, 32788, 32869, 32875, 32828, 32803, 32759, 32730, 32847, 32974, 32859, 32613, 32559, 32666, 32624, 32470, 32559, 32903, 33113, 33001, 32800, 32778, 32901, 32917, 32746, 32614, 32672, 32782, 32798, 32720, 32642, 32625, 32612, 32635, 32795, 32937, 32922, 32937, 32971, 32772, 32575, 32758, 33010, 32879, 32615, 32594, 32613, 32518, 32608, 32884, 32965, 32869, 32850, 32822, 32666, 32609, 32818, 33008, 32908, 32770, 32822, 32815, 32633, 32532, 32588, 32643, 32674, 32766, 32907, 32953, 32874, 32831, 32821, 32748], [35053, 34965, 32057, 28518, 27742, 30231, 33372, 35386, 36695, 37295, 35841, 32206, 29434, 30056, 31954, 32788, 33866, 35347, 34443, 30743, 27804, 28370, 31312, 34130, 35940, 37042, 37197, 35093, 30992, 28785, 30408, 32452, 33166, 34382, 35333, 33502, 29827, 27792, 29125, 32266, 34771, 36170, 37148, 36868, 33798, 29873, 29241, 31370, 32566, 33166, 34810, 35291, 32547, 28869, 27911, 30099, 32998, 35040, 36473, 37305, 36230, 32651, 29427, 29703, 31819, 32955, 33828, 34976, 34345, 31210, 28255, 28387, 31152, 33934, 35618, 36774, 37237, 35419, 31338, 28852, 30251, 32367, 33088, 34164, 35305, 33804, 30073, 27862, 29108, 32046, 34487, 36002, 36953, 36890, 34328, 30253, 28986, 31125, 32729, 33287], [32767, 32767, 32768, 32768, 32767, 32767, 32767, 32767, 32767, 32767, 32768, 32767, 32767, 32767, 32767, 32767, 32767, 32767, 32767, 32767, 32767, 32768, 32768, 32768, 32768, 32767, 32767, 32767, 32767, 32767, 32767, 32767, 32767, 32767, 32767, 32767, 32767, 32768, 32768, 32767, 32767, 32767, 32767, 32767, 32767, 32768, 32767, 32767, 32767, 32767, 32767, 32767, 32767, 32767, 32767, 32767, 32768, 32768, 32768, 32768, 32767, 32767, 32767, 32767, 32767, 32767, 32767, 32767, 32767, 32767, 32767, 32767, 32768, 32768, 32767, 32767, 32767, 32767, 32767, 32767, 32768, 32767, 32767, 32767, 32767, 32767, 32767, 32767, 32767, 32767, 32767, 32768, 32768, 32768, 32768, 32767, 32767, 32767, 32767, 32767]], "framecount": 18.0, "time": 1489540500546}
{"dataframe": [[32624, 32498, 32554, 32641, 32704, 32751, 32794, 32847, 32840, 32815, 32935, 33081, 32992, 32790, 32738, 32723, 32566, 32429, 32498, 32697, 32860, 32843, 32705, 32718, 32855, 32859, 32861, 33037, 33109, 32892, 32625, 32503, 32505, 32586, 32733, 32875, 32876, 32754, 32656, 32619, 32657, 32788, 32905, 32988, 33076, 32992, 32704, 32581, 32718, 32762, 32633, 32595, 32691, 32743, 32724, 32766, 32823, 32754, 32684, 32813, 33046, 33135, 32958, 32685, 32567, 32544, 32510, 32632, 32890, 32968, 32827, 32692, 32619, 32567, 32646, 32895, 33056, 32983, 32925, 32928, 32752, 32565, 32656, 32719, 32533, 32557, 32909, 32996, 32690, 32507, 32657, 32920, 33024, 32922, 32868, 32913, 32766, 32527, 32572, 32767], [32326, 31984, 32092, 32911, 34047, 34679, 34506, 33876, 33029, 32095, 31410, 31299, 31847, 32660, 33036, 32832, 32445, 32020, 31744, 32242, 33495, 34473, 34633, 34342, 33744, 32807, 31852, 31200, 31164, 31889, 32750, 33134, 33142, 32729, 31893, 31533, 32364, 33717, 34546, 34674, 34309, 33475, 32381, 31462, 31092, 31555, 32526, 33075, 32992, 32760, 32343, 31733, 31689, 32654, 34030, 34895, 34785, 33966, 33053, 32230, 31382, 31022, 31724, 32783, 33127, 32852, 32502, 32101, 31761, 32085, 33235, 34381, 34755, 34446, 33792, 32917, 31899, 31029, 30994, 32030, 33091, 33218, 32844, 32549, 32101, 31668, 32145, 33522, 34549, 34590, 34189, 33665, 32761, 31631, 31034, 31474, 32445, 32972, 32876, 32628], [32686, 33043, 33234, 32815, 32093, 31735, 31854, 32207, 32918, 33863, 34180, 33553, 32765, 32410, 32367, 32452, 32623, 32892, 33208, 33223, 32674, 31970, 31722, 32001, 32497, 33021, 33555, 33880, 33601, 32910, 32497, 32448, 32464, 32680, 33061, 33087, 32664, 32264, 32089, 32006, 32157, 32754, 33433, 33735, 33684, 33279, 32619, 32290, 32464, 32697, 32858, 33038, 33022, 32672, 32235, 31954, 31929, 32307, 32965, 33470, 33695, 33652, 33186, 32581, 32361, 32478, 32647, 32837, 33017, 32993, 32636, 32132, 31859, 32029, 32556, 33145, 33532, 33703, 33627, 33138, 32458, 32136, 32279, 32603, 32975, 33245, 33089, 32523, 32039, 31931, 32113, 32557, 33215, 33765, 33831, 33317, 32643, 32346, 32332, 32337], [32622, 32585, 32719, 33056, 33192, 32992, 32759, 32732, 32799, 32778, 32730, 32727, 32710, 32713, 32735, 32639, 32525, 32542, 32524, 32578, 33005, 33382, 33247, 33005, 32972, 32827, 32489, 32293, 32403, 32708, 32916, 32841, 32677, 32596, 32529, 32588, 32911, 33195, 33171, 33037, 32946, 32817, 32649, 32476, 32379, 32538, 32840, 32921, 32759, 32657, 32651, 32596, 32619, 32854, 33112, 33193, 33096, 32911, 32731, 32599, 32509, 32496, 32598, 32729, 32783, 32785, 32784, 32734, 32642, 32656, 32840, 33047, 33116, 33068, 32914, 32580, 32312, 32480, 32842, 32926, 32885, 32966, 32858, 32456, 32245, 32422, 32708, 32942, 33098, 33160, 33175, 33120, 32892, 32540, 32352, 32462, 32576, 32567, 32725, 32996], [32448, 31998, 32090, 32804, 33470, 33777, 33906, 33708, 33013, 32256, 31868, 31877, 32220, 32634, 32823, 32878, 32818, 32424, 32007, 32268, 33154, 33878, 34049, 33861, 33482, 32871, 32021, 31353, 31522, 32374, 32987, 33042, 32928, 32688, 32276, 32188, 32729, 33462, 33920, 34021, 33695, 32979, 32219, 31664, 31525, 32069, 32879, 33166, 32981, 32801, 32566, 32171, 32060, 32657, 33630, 34193, 34043, 33499, 32857, 32204, 31694, 31593, 32054, 32768, 33127, 32995, 32734, 32477, 32253, 32408, 33090, 33827, 34051, 33696, 33105, 32500, 31900, 31558, 31863, 32643, 33241, 33340, 33038, 32516, 32100, 32029, 32321, 33045, 33929, 34212, 33730, 33119, 32616, 31948, 31463, 31814, 32590, 33000, 33155, 33170], [32750, 32848, 32833, 32740, 32697, 32661, 32637, 32663, 32724, 32780, 32762, 32760, 32897, 32947, 32785, 32686, 32744, 32806, 32884, 32984, 32908, 32617, 32394, 32451, 32674, 32824, 32831, 32843, 32941, 32951, 32806, 32704, 32749, 32836, 32842, 32768, 32721, 32726, 32700, 32640, 32597, 32607, 32714, 32873, 32992, 33028, 32917, 32715, 32652, 32717, 32696, 32703, 32876, 32913, 32719, 32671, 32750, 32636, 32563, 32798, 32973, 32868, 32739, 32680, 32695, 32857, 32940, 32770, 32691, 32878, 32962, 32784, 32615, 32569, 32577, 32642, 32745, 32841, 32879, 32788, 32704, 32834, 32984, 32930, 32861, 32860, 32769, 32629, 32521, 32435, 32510, 32784, 32987, 32974, 32868, 32802, 32850, 32889, 32701, 32518], [34688, 35181, 32560, 28923, 27946, 30149, 33044, 34941, 36279, 37268, 36376, 32723, 29318, 29652, 31900, 32912, 33742, 35144, 34564, 31198, 28193, 28448, 31226, 33869, 35335, 36397, 37073, 35583, 31628, 29089, 30405, 32375, 32960, 34123, 35421, 33886, 30022, 27738, 28979, 31915, 34314, 35886, 37059, 37145, 34523, 30331, 28997, 31102, 32726, 33331, 34628, 34941, 32481, 29162, 28013, 29820, 32843, 35147, 36426, 37112, 36401, 33127, 29537, 29433, 31673, 32886, 33703, 35029, 34584, 31438, 28361, 28205, 30741, 33722, 35774, 36997, 37280, 35439, 31533, 28941, 29959, 32009, 32960, 34173, 35478, 34273, 30546, 27878, 28744, 31710, 34274, 35837, 36919, 37066, 34666, 30489, 28829, 30877, 32802, 33279], [32767, 32767, 32767, 32767, 32767, 32767, 32767, 32768, 32768, 32767, 32767, 32767, 32767, 32767, 32767, 32768, 32767, 32767, 32767, 32767, 32767, 32767, 32767, 32767, 32767, 32767, 32768, 32768, 32768, 32768, 32767, 32767, 32767, 32767, 32767, 32767, 32767, 32767, 32767, 32767, 32767, 32767, 32768, 32768, 32767, 32767, 32767, 32767, 32767, 32767, 32768, 32767, 32767, 32767, 32767, 32767, 32767, 32767, 32767, 32767, 32767, 32768, 32768, 32768, 32768, 32767, 32767, 32767, 32767, 32767, 32767, 32767, 32767, 32767, 32767, 32767, 32767, 32768, 32768, 32767, 32767, 32767, 32767, 32767, 32767, 32768, 32767, 32767, 32767, 32767, 32767, 32767, 32767, 32767, 32767, 32767, 32768, 32768, 32768, 32768]], "framecount": 19.0, "time": 1489540500656}
{"dataframe": [[32815, 32777, 32757, 32787, 32821, 32676, 32481, 32616, 32913, 32942, 32848, 32913, 32950, 32816, 32737, 32781, 32716, 32551, 32594, 32846, 32907, 32670, 32529, 32612, 32651, 32784, 33160, 33234, 32827, 32632, 32817, 32809, 32603, 32625, 32765, 32777, 32751, 32663, 32492, 32529, 32790, 32924, 32933, 33045, 33128, 32982, 32731, 32539, 32457, 32580, 32846, 32931, 32758, 32600, 32556, 32561, 32679, 32898, 33065, 33120, 33038, 32813, 32604, 32563, 32634, 32697, 32745, 32823, 32870, 32800, 32677, 32634, 32681, 32720, 32690, 32713, 32938, 33135, 32967, 32677, 32630, 32616, 32630, 33035, 33325, 32839, 32294, 32405, 32584, 32458, 32519, 32829, 33028, 33130, 33166, 33031, 32868, 32783, 32675, 32581], [32330, 31932, 31872, 32662, 33981, 34800, 34635, 33938, 33152, 32295, 31461, 31135, 31666, 32542, 33019, 33029, 32692, 32085, 31726, 32122, 33142, 34224, 34753, 34486, 33761, 32911, 31927, 31142, 31254, 32142, 32877, 33025, 32793, 32369, 31964, 31911, 32436, 33441, 34383, 34695, 34350, 33646, 32690, 31611, 31011, 31393, 32286, 32858, 32994, 32872, 32450, 31960, 31940, 32685, 33878, 34648, 34457, 33759, 33149, 32473, 31532, 31049, 31731, 32819, 33175, 32935, 32606, 32108, 31649, 31901, 33016, 34264, 34773, 34494, 33934, 33131, 31923, 30946, 31123, 32187, 32940, 33010, 32861, 32515, 31939, 31715, 32305, 33490, 34546, 34778, 34250, 33523, 32694, 31651, 30965, 31356, 32429, 33101, 33074, 32730], [32656, 33295, 33492, 32960, 32285, 31876, 31744, 32040, 32750, 33429, 33784, 33730, 33208, 32669, 32586, 32581, 32450, 32728, 33178, 32956, 32325, 32046, 32024, 32073, 32493, 33214, 33748, 33886, 33573, 32869, 32272, 32157, 32331, 32650, 33102, 33341, 33055, 32437, 31922, 31829, 32142, 32616, 33185, 33818, 34036, 33450, 32597, 32226, 32260, 32357, 32613, 33076, 33323, 32949, 32263, 31972, 32144, 32400, 32816, 33423, 33686, 33415, 33048, 32738, 32341, 32162, 32553, 33116, 33261, 33011, 32614, 32178, 31956, 32157, 32542, 32870, 33313, 33784, 33634, 32843, 32336, 32446, 32655, 32795, 32989, 33071, 32846, 32392, 32015, 31973, 32240, 32683, 33183, 33603, 33777, 33482, 32781, 32219, 32180, 32471], [32972, 32685, 32479, 32495, 32714, 33051, 33304, 33231, 32922, 32781, 32786, 32623, 32459, 32501, 32502, 32468, 32628, 32745, 32690, 32834, 33114, 33151, 33111, 33132, 32917, 32561, 32421, 32404, 32457, 32766, 33028, 32867, 32652, 32744, 32811, 32627, 32524, 32713, 32985, 33100, 32997, 32791, 32736, 32912, 33038, 32838, 32458, 32279, 32378, 32556, 32727, 32815, 32774, 32841, 33098, 33222, 33127, 33000, 32815, 32575, 32416, 32338, 32440, 32777, 32966, 32848, 32803, 32836, 32660, 32540, 32736, 32931, 32983, 33063, 33059, 32838, 32595, 32505, 32581, 32740, 32810, 32781, 32728, 32584, 32449, 32541, 32778, 33012, 33235, 33270, 32991, 32723, 32644, 32487, 32334, 32576, 32982, 33060, 32915, 32774], [32691, 32047, 31984, 32553, 33395, 34089, 34126, 33580, 32998, 32411, 31722, 31442, 31912, 32625, 33027, 33132, 33022, 32646, 32258, 32297, 32848, 33557, 33987, 33914, 33382, 32630, 31941, 31531, 31671, 32430, 33213, 33377, 33065, 32633, 32150, 31926, 32326, 33110, 33810, 34155, 33921, 33224, 32526, 31969, 31582, 31744, 32472, 33101, 33199, 32913, 32502, 32132, 32037, 32563, 33572, 34249, 34151, 33611, 32951, 32236, 31588, 31345, 31843, 32754, 33269, 33193, 32952, 32671, 32297, 32214, 32742, 33504, 33968, 33954, 33459, 32689, 31973, 31519, 31651, 32439, 33117, 33193, 33100, 32872, 32224, 31782, 32215, 33146, 33914, 34210, 33943, 33280, 32505, 31771, 31410, 31831, 32687, 33157, 33131, 32975], [32679, 32925, 32945, 32848, 32730, 32660, 32695, 32663, 32555, 32611, 32809, 32947, 32967, 32899, 32799, 32734, 32724, 32777, 32844, 32848, 32803, 32700, 32539, 32530, 32707, 32753, 32733, 32948, 33090, 32856, 32619, 32640, 32720, 32795, 32888, 32878, 32840, 32898, 32859, 32594, 32373, 32415, 32605, 32807, 33014, 33098, 32918, 32711, 32759, 32873, 32838, 32825, 32869, 32743, 32541, 32538, 32623, 32596, 32612, 32807, 33009, 33064, 32989, 32816, 32626, 32560, 32673, 32889, 33005, 32877, 32680, 32664, 32723, 32632, 32502, 32595, 32860, 33029, 33000, 32824, 32626, 32606, 32781, 32911, 32887, 32835, 32820, 32804, 32736, 32607, 32567, 32674, 32709, 32688, 32830, 32956, 32848, 32717, 32726, 32769], [34299, 35129, 33268, 29547, 27738, 29539, 32692, 34854, 36164, 37095, 36567, 33485, 29892, 29401, 31419, 32739, 33518, 34843, 34736, 31829, 28622, 28294, 30707, 33421, 35221, 36601, 37451, 35965, 31764, 28820, 30041, 32340, 33050, 33901, 35147, 34174, 30729, 28049, 28645, 31500, 34156, 35757, 36851, 37190, 35029, 30805, 28875, 30653, 32415, 33110, 34570, 35376, 33216, 29601, 27918, 29392, 32353, 34729, 36107, 36980, 36689, 33779, 29979, 29441, 31674, 32851, 33181, 34418, 34725, 32144, 28744, 28115, 30609, 33509, 35275, 36512, 37308, 36061, 32137, 28919, 29694, 32120, 33111, 33925, 35200, 34356, 30824, 28024, 28637, 31437, 33979, 35652, 36927, 37295, 35078, 30834, 28777, 30422, 32318, 33222], [32767, 32767, 32767, 32767, 32767, 32767, 32767, 32767, 32767, 32767, 32767, 32767, 32768, 32768, 32767, 32767, 32767, 32767, 32767, 32767, 32768, 32767, 32767, 32767, 32767, 32767, 32767, 32767, 32767, 32767, 32767, 32768, 32768, 32768, 32768, 32767, 32767, 32767, 32767, 32767, 32767, 32767, 32767, 32767, 32767, 32767, 32767, 32768, 32768, 32767, 32767, 32767, 32767, 32767, 32767, 32768, 32767, 32767, 32767, 32767, 32767, 32767, 32767, 32767, 32767, 32767, 32768, 32768, 32768, 32768, 32767, 32767, 32767, 32767, 32767, 32767, 32767, 32767, 32767, 32767, 32767, 32767, 32768, 32768, 32767, 32767, 32767, 32767, 32767, 32767, 32768, 32767, 32767, 32767, 32767, 32767, 32767, 32767, 32767, 32767]], "framecount": 20.0, "time": 1489540500734}
