{"dataframe": [[32768, 32768, 32768, 32768, 32768, 32768, 32768, 32768, 32768, 32768, 32768, 32768, 32768, 32768, 32768, 32768, 32768, 32768, 32768, 32768, 32768, 32768, 32768, 32768, 32768, 32768, 32768, 32768, 32768, 32768, 32768, 32768, 32768, 32768, 32768, 32768, 32768, 32768, 32768, 32768, 32768, 32768, 32768, 32768, 32768, 32768, 32842, 32865, 32973, 32931, 32807, 32722, 32589, 32550, 32793, 32970, 32796, 32585, 32519, 32436, 32520, 32953, 33256, 33117, 32951, 32962, 32869, 32650, 32454, 32319, 32472, 32938, 33140, 32841, 32588, 32639, 32692, 32646, 32654, 32826, 33118, 33217, 32955, 32686, 32679, 32746, 32685, 32590, 32661, 32793, 32680, 32453, 32500, 32700, 32768, 32897, 33209, 33355, 33120, 32739], [32768, 32768, 32768, 32768, 32768, 32768, 32768, 32768, 32768, 32768, 32768, 32768, 32768, 32768, 32768, 32768, 32768, 32768, 32768, 32768, 32768, 32768, 32768, 32768, 32768, 32768, 32768, 32768, 32768, 32768, 32768, 32768, 32768, 32768, 32768, 32768, 32768, 32768, 32768, 32768, 32768, 32768, 32768, 32768, 32768, 32768, 31585, 30837, 31180, 32274, 33042, 33045, 32720, 32330, 31783, 31596, 32527, 34050, 34888, 34808, 34334, 33567, 32422, 31223, 30707, 31364, 32496, 32999, 32985, 32939, 32492, 31634, 31448, 32628, 34349, 35224, 34933, 34231, 33419, 32104, 30711, 30525, 31623, 32641, 32956, 32934, 32530, 31856, 31806, 32678, 33774, 34590, 35020, 34825, 33886, 32509, 31158, 30454, 30979, 32215], [32768, 32768, 32768, 32768, 32768, 32768, 32768, 32768, 32768, 32768, 32768, 32768, 32768, 32768, 32768, 32768, 32768, 32768, 32768, 32768, 32768, 32768, 32768, 32768, 32768, 32768, 32768, 32768, 32768, 32768, 32768, 32768, 32768, 32768, 32768, 32768, 32768, 32768, 32768, 32768, 32768, 32768, 32768, 32768, 32768, 32768, 34260, 34542, 34118, 33209, 32601, 32496, 32420, 32417, 32799, 33107, 32733, 31963, 31498, 31606, 32154, 32920, 33636, 34053, 34021, 33574, 33069, 32781, 32407, 31667, 30873, 31090, 33627, 36812, 36059, 31753, 29834, 30924, 30671, 30231, 32729, 35237, 34997, 34132, 33770, 33331, 33659, 34246, 33215, 31586, 31220, 31102, 30023, 29072, 29713, 32143, 35309, 37412, 37435, 36109], [32768, 32768, 32768, 32768, 32768, 32768, 32768, 32768, 32768, 32768, 32768, 32768, 32768, 32768, 32768, 32768, 32768, 32768, 32768, 32768, 32768, 32768, 32768, 32768, 32768, 32768, 32768, 32768, 32768, 32768, 32768, 32768, 32768, 32768, 32768, 32768, 32768, 32768, 32768, 32768, 32768, 32768, 32768, 32768, 32768, 32768, 31575, 31563, 31923, 32385, 32729, 33024, 33265, 33234, 32949, 32749, 32842, 33086, 33234, 33144, 32810, 32453, 32354, 32415, 32393, 32468, 32778, 32937, 32968, 33365, 33551, 32661, 31302, 30104, 29829, 32871, 38238, 39734, 35692, 31423, 29466, 28364, 28660, 30981, 33248, 34069, 33811, 32937, 32668, 33988, 35272, 34879, 33975, 33534, 32650, 31298, 30493, 30344, 30672, 31605], [32768, 32768, 32768, 32768, 32768, 32768, 32768, 32768, 32768, 32768, 32768, 32768, 32768, 32768, 32768, 32768, 32768, 32768, 32768, 32768, 32768, 32768, 32768, 32768, 32768, 32768, 32768, 32768, 32768, 32768, 32768, 32768, 32768, 32768, 32768, 32768, 32768, 32768, 32768, 32768, 32768, 32768, 32768, 32768, 32768, 32768, 30964, 30483, 31013, 32431, 33487, 33583, 33322, 32953, 32368, 32092, 32645, 33616, 34225, 34156, 33556, 32757, 32033, 31406, 31125, 31745, 32913, 33517, 33407, 33123, 32572, 31730, 31530, 32645, 34226, 34948, 34588, 33671, 32511, 31304, 30589, 30973, 32218, 33334, 33836, 33830, 33233, 32210, 31556, 31847, 32848, 33766, 33973, 33733, 33594, 33273, 32389, 31639, 31754, 32261], [32768, 32768, 32768, 32768, 32768, 32768, 32768, 32768, 32768, 32768, 32768, 32768, 32768, 32768, 32768, 32768, 32768, 32768, 32768, 32768, 32768, 32768, 32768, 32768, 32768, 32768, 32768, 32768, 32768, 32768, 32768, 32768, 32768, 32768, 32768, 32768, 32768, 32768, 32768, 32768, 32768, 32768, 32768, 32768, 32768, 32768, 33170, 33133, 32871, 32626, 32584, 32716, 32817, 32817, 32784, 32786, 32839, 32827, 32659, 32509, 32583, 32752, 32790, 32792, 32916, 32946, 32746, 32659, 32806, 32870, 32854, 32905, 32825, 32685, 32762, 32813, 32620, 32489, 32537, 32594, 32694, 32836, 32848, 32844, 33029, 33156, 32989, 32843, 32895, 32835, 32592, 32406, 32326, 32348, 32549, 32816, 32982, 33062, 33085, 33020], [32768, 32768, 32768, 32768, 32768, 32768, 32768, 32768, 32768, 32768, 32768, 32768, 32768, 32768, 32768, 32768, 32768, 32768, 32768, 32768, 32768, 32768, 32768, 32768, 32768, 32768, 32768, 32768, 32768, 32768, 32768, 32768, 32768, 32768, 32768, 32768, 32768, 32768, 32768, 32768, 32768, 32768, 32768, 32768, 32768, 32768, 38107, 35365, 30598, 28537, 30453, 32502, 33323, 34614, 35340, 33153, 29190, 27205, 28912, 32330, 35033, 36658, 37657, 37216, 33908, 29621, 28744, 31058, 32823, 33888, 35300, 34956, 31649, 28160, 27684, 30195, 33398, 35612, 36855, 37512, 36295, 32254, 28849, 29579, 31966, 33091, 34218, 35505, 34465, 30816, 27680, 27935, 30973, 33993, 35823, 37162, 37627, 35277, 30773, 28747], [32768, 32768, 32768, 32768, 32768, 32768, 32768, 32768, 32768, 32768, 32768, 32768, 32768, 32768, 32768, 32768, 32768, 32768, 32768, 32768, 32768, 32768, 32768, 32768, 32768, 32768, 32768, 32768, 32768, 32768, 32768, 32768, 32768, 32768, 32768, 32768, 32768, 32768, 32768, 32768, 32768, 32768, 32768, 32768, 32768, 32768, 33289, 33347, 33299, 33162, 32969, 32761, 32574, 32440, 32376, 32388, 32464, 32586, 32728, 32862, 32967, 33026, 33034, 32995, 32920, 32825, 32730, 32651, 32600, 32584, 32601, 32646, 32707, 32773, 32832, 32873, 32892, 32887, 32862, 32823, 32778, 32735, 32703, 32685, 32683, 32697, 32721, 32751, 32781, 32806, 32821, 32826, 32820, 32805, 32785, 32765, 32746, 32733, 32728, 32730]], "framecount": 0.0, "time": 1489540476075}
{"dataframe": [[32570, 32651, 32651, 32490, 32465, 32627, 32771, 32824, 32791, 32687, 32663, 32847, 33099, 33190, 33054, 32767, 32523, 32510, 32669, 32819, 32849, 32716, 32523, 32502, 32715, 32896, 32817, 32691, 32796, 32955, 32960, 32939, 32924, 32843, 32760, 32627, 32485, 32645, 32894, 32757, 32570, 32672, 32701, 32643, 32779, 32877, 32896, 33120, 33212, 32845, 32536, 32584, 32583, 32458, 32607, 32964, 33014, 32768, 32684, 32745, 32685, 32648, 32772, 32917, 33005, 32978, 32797, 32617, 32519, 32515, 32762, 33130, 33134, 32700, 32385, 32549, 32832, 32815, 32673, 32675, 32733, 32787, 32954, 33111, 33010, 32771, 32661, 32669, 32700, 32729, 32657, 32515, 32539, 32694, 32744, 32812, 33053, 33188, 33055, 32873], [32876, 32829, 32801, 32649, 32049, 31840, 32829, 34270, 34942, 34761, 34185, 33227, 31966, 30964, 30778, 31500, 32560, 33187, 33237, 32930, 32280, 31627, 31761, 32867, 34159, 34854, 34841, 34273, 33256, 31987, 30907, 30740, 31672, 32718, 33113, 33113, 32733, 31874, 31431, 32201, 33626, 34689, 34934, 34475, 33671, 32653, 31455, 30760, 31302, 32452, 33020, 33020, 32957, 32610, 31905, 31581, 32228, 33519, 34584, 34856, 34403, 33547, 32446, 31341, 30959, 31720, 32701, 32931, 32872, 32932, 32445, 31526, 31520, 32811, 34189, 34630, 34327, 33840, 33275, 32541, 31804, 31513, 31907, 32520, 32770, 32658, 32263, 31611, 31295, 32021, 33559, 34876, 35241, 34803, 34013, 32970, 31689, 30707, 30825, 31954], [34479, 32757, 31227, 30502, 30556, 30837, 31037, 31222, 31651, 32428, 33359, 34274, 34987, 35189, 34701, 33603, 32302, 31451, 31327, 31654, 32141, 32671, 33055, 32996, 32489, 32041, 32105, 32595, 33206, 33734, 34027, 33864, 33154, 32364, 32051, 32070, 32207, 32719, 33393, 33395, 32643, 31969, 31781, 31889, 32299, 33025, 33762, 34148, 34012, 33779, 33892, 33288, 30936, 28835, 29778, 32809, 34700, 34623, 33977, 33435, 32948, 32736, 32753, 32711, 32632, 32608, 32676, 32662, 32054, 31015, 30646, 31767, 34391, 36865, 36221, 32893, 31158, 32040, 32664, 32091, 31114, 30151, 30408, 32373, 34292, 35172, 35626, 35501, 34472, 33139, 31721, 30314, 29809, 30409, 31265, 32253, 33607, 34590, 34897, 35163], [32720, 33497, 33980, 34199, 34083, 33809, 33552, 33334, 33053, 32489, 31801, 31523, 31663, 31826, 32107, 32711, 33323, 33626, 33664, 33466, 33054, 32667, 32488, 32480, 32584, 32727, 32778, 32682, 32615, 32729, 32800, 32691, 32691, 32816, 32769, 32745, 33035, 33227, 32896, 32432, 32350, 32594, 32986, 33411, 33358, 32477, 31543, 31498, 31935, 32079, 32607, 34664, 37064, 36753, 33327, 30055, 29060, 29445, 30403, 31959, 33429, 34224, 34682, 34821, 34381, 33769, 33225, 32433, 31575, 31173, 31249, 31537, 31978, 32834, 34037, 34637, 34135, 33305, 32605, 31911, 31695, 32212, 32774, 32981, 32955, 32651, 32337, 32492, 32890, 33143, 33335, 33367, 32984, 32566, 32669, 32991, 32970, 32872, 32456, 30813], [32538, 32729, 32788, 32329, 31762, 31957, 33014, 34279, 34868, 34294, 33246, 32691, 32287, 31507, 31232, 32052, 32876, 32966, 32911, 32885, 32494, 32079, 32256, 32959, 33761, 34274, 34174, 33542, 32805, 32080, 31349, 31142, 31913, 33014, 33402, 33109, 32902, 32808, 32367, 32038, 32619, 33615, 33998, 33818, 33532, 32964, 32037, 31399, 31652, 32486, 33105, 33232, 32976, 32370, 31802, 31837, 32503, 33518, 34399, 34495, 33859, 33124, 32453, 31752, 31348, 31602, 32283, 32780, 32891, 32857, 32770, 32677, 32810, 33204, 33632, 33825, 33583, 33078, 32600, 32002, 31369, 31518, 32616, 33509, 33460, 33026, 32665, 32162, 31686, 31926, 33003, 34114, 34435, 34010, 33408, 32763, 31874, 31151, 31416, 32543], [32878, 32743, 32729, 32798, 32775, 32644, 32519, 32480, 32590, 32769, 32878, 32955, 33010, 32929, 32784, 32710, 32643, 32611, 32717, 32808, 32802, 32897, 33005, 32827, 32600, 32655, 32675, 32461, 32479, 32880, 33154, 33063, 32862, 32756, 32726, 32640, 32531, 32655, 32935, 32964, 32781, 32717, 32727, 32699, 32742, 32772, 32695, 32730, 32854, 32765, 32654, 32825, 32975, 32859, 32782, 32900, 32914, 32689, 32499, 32489, 32521, 32588, 32807, 33051, 33064, 32878, 32782, 32785, 32702, 32695, 32880, 32889, 32686, 32699, 32841, 32751, 32597, 32565, 32548, 32635, 32876, 33010, 32944, 32818, 32742, 32835, 33014, 32986, 32790, 32710, 32627, 32377, 32307, 32586, 32828, 32910, 33032, 33079, 32932, 32782], [30693, 32648, 33316, 34764, 35636, 33166, 28975, 27190, 29035, 32197, 34662, 36429, 37670, 37286, 33983, 29715, 28873, 31312, 33004, 33612, 34884, 35165, 32273, 28234, 27205, 29917, 33282, 35333, 36743, 37688, 36550, 32702, 29256, 29492, 31721, 33023, 34042, 35210, 34268, 30701, 27796, 28322, 31159, 33879, 35853, 37294, 37581, 35306, 30927, 28544, 30241, 32572, 33492, 34698, 35623, 33665, 29538, 27151, 28568, 31815, 34407, 36193, 37623, 37550, 34375, 29974, 28948, 31323, 32975, 33545, 34777, 34887, 31995, 28370, 27515, 29909, 33164, 35346, 36695, 37767, 36945, 32796, 28839, 29309, 31820, 32799, 33823, 35581, 34821, 30884, 27663, 28049, 30894, 33723, 35647, 37087, 37774, 35815, 31167, 28439], [32738, 32751, 32765, 32778, 32788, 32794, 32794, 32790, 32782, 32772, 32763, 32755, 32750, 32749, 32751, 32756, 32762, 32769, 32774, 32778, 32780, 32779, 32777, 32773, 32768, 32764, 32761, 32759, 32759, 32761, 32763, 32766, 32769, 32771, 32773, 32773, 32773, 32771, 32769, 32767, 32765, 32764, 32764, 32764, 32765, 32766, 32767, 32769, 32770, 32770, 32770, 32770, 32769, 32768, 32767, 32766, 32766, 32766, 32766, 32766, 32767, 32768, 32768, 32768, 32769, 32769, 32768, 32768, 32768, 32767, 32767, 32767, 32767, 32767, 32767, 32767, 32768, 32768, 32768, 32768, 32768, 32768, 32768, 32768, 32767, 32767, 32767, 32767, 32767, 32767, 32767, 32767, 32768, 32768, 32768, 32768, 32768, 32768, 32768, 32767]], "framecount": 1.0, "time": 1489540476293}
{"dataframe": [[32666, 32414, 32459, 32828, 32986, 32817, 32694, 32631, 32510, 32542, 32788, 33001, 33052, 32989, 32885, 32806, 32707, 32557, 32538, 32708, 32792, 32740, 32843, 32990, 32826, 32581, 32604, 32685, 32720, 32905, 33048, 32909, 32763, 32773, 32714, 32597, 32620, 32749, 32869, 32883, 32726, 32565, 32583, 32713, 32881, 33034, 32996, 32816, 32759, 32774, 32665, 32587, 32679, 32763, 32810, 32926, 32969, 32785, 32510, 32389, 32502, 32728, 32937, 33076, 33136, 33071, 32840, 32584, 32536, 32662, 32748, 32740, 32699, 32690, 32746, 32785, 32718, 32626, 32667, 32875, 33064, 33008, 32836, 32806, 32777, 32650, 32717, 32886, 32712, 32429, 32533, 32752, 32670, 32627, 32955, 33144, 32902, 32864, 33104, 32898], [32948, 33143, 32893, 32433, 31761, 31465, 32289, 33857, 34924, 34993, 34505, 33642, 32309, 31024, 30744, 31690, 32885, 33358, 33170, 32674, 31929, 31301, 31449, 32531, 33968, 34922, 34985, 34369, 33441, 32367, 31345, 31026, 31804, 32749, 32869, 32600, 32412, 31947, 31518, 32048, 33376, 34474, 34877, 34734, 34111, 33064, 31856, 30923, 30912, 31874, 32808, 33139, 33109, 32568, 31566, 31212, 32170, 33707, 34882, 35303, 34882, 33837, 32527, 31242, 30630, 31244, 32333, 32766, 32703, 32646, 32289, 31725, 31899, 33091, 34452, 35102, 34874, 34139, 33208, 32048, 30872, 30537, 31468, 32722, 33247, 33154, 32791, 32092, 31497, 31917, 33348, 34660, 34992, 34516, 33745, 32810, 31701, 30888, 31130, 32283], [34627, 32228, 30022, 30401, 32252, 34021, 35336, 34664, 31847, 29919, 30285, 31795, 33981, 35743, 35037, 32691, 31406, 31270, 30795, 30474, 31765, 34299, 36194, 36201, 34734, 32998, 31671, 30883, 30733, 31135, 31755, 32303, 32651, 32943, 33370, 33772, 33993, 34194, 34308, 33837, 32618, 31290, 30622, 30783, 31477, 32390, 33345, 34088, 34190, 33701, 33192, 32709, 32120, 31999, 32408, 32618, 33288, 35060, 35195, 32178, 30176, 31170, 31125, 29626, 30808, 33889, 35264, 35453, 35626, 34863, 33686, 33211, 32505, 31057, 30087, 30030, 30404, 31342, 32803, 34085, 34850, 34975, 34249, 33321, 33101, 33117, 32597, 32146, 32327, 32389, 31837, 31330, 31414, 31941, 32663, 33445, 34172, 34585, 34190, 33108], [30044, 32975, 36182, 35008, 31945, 30772, 31271, 33479, 36326, 35930, 32662, 30685, 30018, 29198, 30129, 33146, 35227, 35507, 35362, 34641, 32989, 31603, 31133, 31098, 31429, 32159, 32755, 33020, 33274, 33535, 33564, 33364, 33171, 33117, 33000, 32590, 32088, 31827, 31832, 32073, 32562, 33091, 33433, 33590, 33523, 33191, 32819, 32575, 32451, 32548, 32798, 32850, 32679, 32619, 32435, 31569, 30755, 31632, 33918, 35094, 34290, 33996, 35363, 35362, 32379, 29532, 29087, 29741, 30650, 32193, 33685, 34379, 34678, 34812, 34545, 33989, 33281, 32413, 31697, 31389, 31336, 31539, 32100, 32655, 32960, 33323, 33684, 33513, 32972, 32750, 32851, 32841, 32779, 32872, 32943, 32807, 32519, 32287, 32342, 32589], [33423, 33501, 33056, 32302, 31565, 31566, 32537, 33788, 34450, 34282, 33744, 33230, 32577, 31743, 31326, 31804, 32638, 32926, 32730, 32660, 32591, 32197, 32102, 32895, 33913, 34345, 34239, 33739, 32873, 31943, 31224, 31113, 32041, 33300, 33635, 33111, 32534, 32067, 31800, 32159, 33039, 33833, 34243, 34201, 33659, 32846, 32053, 31470, 31525, 32322, 33014, 32998, 32735, 32520, 32095, 31731, 32174, 33474, 34729, 35023, 34291, 33160, 32072, 31095, 30710, 31502, 32768, 33287, 33231, 33215, 32888, 32180, 31970, 32666, 33658, 34195, 34048, 33480, 32787, 32024, 31391, 31440, 32313, 33173, 33323, 33127, 32907, 32363, 31725, 31808, 32718, 33758, 34346, 34301, 33726, 32904, 32065, 31465, 31562, 32295], [32724, 32699, 32684, 32654, 32672, 32815, 32975, 32969, 32764, 32570, 32528, 32505, 32539, 32801, 33039, 33039, 33004, 32890, 32613, 32588, 32899, 33015, 32810, 32624, 32563, 32570, 32611, 32642, 32726, 32883, 32928, 32847, 32812, 32827, 32826, 32804, 32767, 32803, 32929, 32946, 32757, 32555, 32509, 32527, 32509, 32605, 32858, 33029, 33009, 32904, 32799, 32772, 32841, 32884, 32839, 32768, 32671, 32600, 32661, 32718, 32645, 32641, 32725, 32701, 32732, 32952, 33044, 32891, 32769, 32806, 32897, 32916, 32800, 32636, 32529, 32474, 32488, 32656, 32918, 33017, 32893, 32802, 32805, 32752, 32742, 32806, 32755, 32730, 32927, 33048, 32875, 32639, 32525, 32509, 32540, 32555, 32611, 32853, 33121, 33094], [30258, 32759, 33448, 34412, 35385, 33507, 29488, 27328, 28745, 31805, 34476, 36359, 37533, 37365, 34493, 30154, 28852, 31134, 32866, 33424, 34755, 35223, 32442, 28371, 27158, 29634, 32992, 35327, 36962, 37913, 36779, 32834, 29094, 29271, 31634, 32853, 33919, 35492, 34782, 31012, 27640, 27795, 30793, 33893, 35765, 36966, 37624, 35960, 31602, 28752, 30093, 32194, 32903, 34285, 35738, 33991, 29678, 27242, 28775, 31976, 34387, 36043, 37420, 37476, 34552, 30057, 28626, 30949, 32904, 33628, 34986, 35377, 32539, 28579, 27337, 29508, 32742, 35039, 36415, 37507, 37107, 33490, 29335, 29117, 31492, 32882, 34000, 35456, 34780, 31298, 27938, 27681, 30402, 33547, 35553, 36947, 37749, 36057, 31673, 28872], [32767, 32767, 32767, 32767, 32767, 32767, 32767, 32768, 32768, 32768, 32768, 32768, 32768, 32768, 32767, 32767, 32767, 32767, 32767, 32767, 32767, 32767, 32767, 32768, 32768, 32768, 32768, 32768, 32767, 32767, 32767, 32767, 32767, 32767, 32767, 32767, 32767, 32767, 32768, 32768, 32767, 32767, 32767, 32767, 32767, 32767, 32767, 32767, 32768, 32768, 32767, 32767, 32767, 32767, 32767, 32767, 32768, 32767, 32767, 32767, 32767, 32767, 32767, 32767, 32767, 32767, 32767, 32768, 32768, 32768, 32768, 32767, 32767, 32767, 32767, 32767, 32767, 32767, 32767, 32767, 32767, 32767, 32767, 32768, 32768, 32767, 32767, 32767, 32767, 32767, 32767, 32768, 32767, 32767, 32767, 32767, 32767, 32767, 32767, 32767]], "framecount": 2.0, "time": 1489540476403}
{"dataframe": [[32455, 32449, 32546, 32483, 32746, 33176, 33138, 32860, 32726, 32541, 32354, 32516, 32861, 32986, 32949, 32987, 32994, 32830, 32666, 32647, 32662, 32627, 32623, 32692, 32692, 32560, 32590, 32948, 33233, 33144, 32963, 32901, 32804, 32619, 32429, 32311, 32443, 32799, 33055, 33068, 32913, 32689, 32585, 32652, 32721, 32788, 32921, 32960, 32841, 32790, 32846, 32756, 32533, 32485, 32686, 32965, 33134, 32965, 32500, 32254, 32481, 32773, 32891, 33054, 33231, 33109, 32745, 32547, 32630, 32694, 32588, 32538, 32676, 32825, 32868, 32867, 32816, 32707, 32691, 32812, 32895, 32887, 32874, 32833, 32754, 32706, 32658, 32618, 32710, 32844, 32802, 32657, 32635, 32706, 32712, 32716, 32900, 33170, 33181, 32872], [33135, 33090, 32698, 32275, 31745, 31569, 32350, 33813, 34897, 34920, 34241, 33457, 32633, 31729, 31098, 31212, 31979, 32677, 32871, 32768, 32568, 32324, 32423, 33173, 34065, 34369, 34020, 33354, 32660, 32038, 31423, 31275, 32227, 33451, 33592, 32979, 32507, 31981, 31364, 31575, 32898, 34265, 34738, 34453, 33873, 33154, 32218, 31271, 31171, 32193, 33075, 33008, 32731, 32494, 31761, 31053, 31546, 33329, 35193, 35778, 34952, 33729, 32629, 31426, 30571, 30956, 32151, 32816, 32766, 32726, 32684, 32298, 32052, 32630, 33784, 34640, 34739, 34212, 33307, 32182, 31123, 30823, 31692, 32863, 33212, 32924, 32602, 32134, 31633, 31865, 33048, 34366, 34929, 34639, 33924, 33036, 31962, 30961, 30852, 31978], [32382, 32365, 32352, 32275, 32610, 32993, 32700, 31869, 31389, 31748, 32678, 34043, 35196, 34276, 31707, 31190, 33377, 34637, 33998, 33121, 31487, 29395, 29268, 30568, 31665, 33740, 36537, 37324, 36098, 34836, 33517, 31568, 29872, 29255, 29589, 30614, 32147, 33745, 34851, 35139, 34587, 33538, 32614, 32236, 32309, 32492, 32582, 32552, 32435, 32349, 32348, 32217, 32001, 32311, 33253, 34287, 35485, 36061, 33721, 29544, 28096, 30023, 32074, 33351, 34451, 34539, 33870, 34094, 34675, 33705, 31461, 29989, 30497, 32273, 33524, 33475, 33059, 33024, 33040, 33018, 33272, 33310, 32621, 31999, 32117, 32469, 32786, 33252, 33561, 33450, 32997, 32237, 31613, 31712, 32249, 32681, 33218, 33892, 33880, 32999], [32684, 32651, 32747, 32901, 33021, 33171, 33130, 32810, 32672, 32759, 32256, 31072, 31312, 34570, 37495, 35745, 31613, 29391, 28337, 28648, 32925, 37408, 36715, 33952, 33195, 32451, 31018, 31116, 31969, 32044, 32374, 33176, 33440, 33524, 33708, 33358, 32817, 32650, 32388, 32039, 32220, 32608, 32677, 32757, 33015, 33108, 33030, 32975, 32918, 32907, 32966, 32801, 32331, 32014, 32025, 32016, 32189, 33268, 34790, 35217, 34278, 32978, 31487, 29776, 29205, 30667, 32774, 34037, 35026, 36553, 37260, 35326, 31671, 28898, 28148, 29084, 31020, 32936, 34177, 34896, 35127, 34746, 34105, 33488, 32811, 32129, 31535, 31116, 31149, 31641, 32256, 32876, 33454, 33814, 33924, 33795, 33376, 32855, 32537, 32412], [32836, 32821, 32670, 32552, 32325, 32215, 32645, 33578, 34364, 34357, 33652, 32857, 32211, 31543, 31106, 31576, 32750, 33492, 33576, 33641, 33300, 31957, 30890, 31565, 33127, 34108, 34463, 34307, 33390, 32283, 31752, 31747, 32098, 32676, 32986, 32820, 32493, 32118, 31785, 32070, 33199, 34305, 34507, 34021, 33465, 32877, 32073, 31362, 31370, 32166, 32952, 33084, 32843, 32584, 32148, 31807, 32357, 33724, 34828, 34861, 33901, 32635, 31763, 31388, 31305, 31666, 32583, 33473, 33596, 32952, 32208, 31940, 32215, 32869, 33649, 34148, 34147, 33727, 32969, 32069, 31420, 31358, 31987, 32862, 33219, 33034, 32857, 32616, 32076, 31939, 32830, 33947, 34304, 34097, 33616, 32696, 31729, 31342, 31614, 32341], [32889, 32835, 32890, 32828, 32676, 32634, 32682, 32640, 32581, 32665, 32797, 32854, 32860, 32847, 32830, 32766, 32628, 32548, 32673, 32938, 33122, 33090, 32910, 32709, 32559, 32535, 32604, 32569, 32497, 32694, 33006, 33019, 32888, 32924, 32868, 32587, 32555, 32867, 33020, 32928, 32866, 32745, 32478, 32362, 32512, 32662, 32761, 33006, 33198, 33021, 32745, 32685, 32669, 32655, 32794, 32901, 32833, 32764, 32726, 32613, 32498, 32518, 32692, 32938, 33123, 33074, 32807, 32651, 32711, 32701, 32650, 32827, 33007, 32878, 32645, 32581, 32614, 32593, 32583, 32756, 32984, 32994, 32923, 32903, 32738, 32574, 32718, 32895, 32851, 32821, 32830, 32669, 32516, 32593, 32685, 32640, 32715, 32976, 33089, 32933], [30240, 32333, 32956, 34199, 35610, 33989, 29821, 27242, 28460, 31729, 34493, 36158, 37328, 37512, 34886, 30360, 28603, 30630, 32499, 33374, 35014, 35723, 33094, 28944, 27272, 29218, 32368, 34674, 36280, 37507, 37090, 33658, 29634, 29312, 31685, 32941, 33698, 35247, 34995, 31480, 27798, 27452, 30245, 33540, 35713, 36940, 37438, 36021, 32216, 29276, 29987, 31969, 32985, 34363, 35637, 33999, 29906, 27253, 28240, 31365, 34308, 36306, 37509, 37557, 35120, 30768, 28684, 30430, 32412, 33268, 34680, 35463, 33175, 29101, 27247, 29169, 32368, 34669, 36508, 37999, 37435, 33663, 29356, 28806, 31229, 32809, 33777, 35365, 35167, 31682, 27945, 27521, 30185, 33349, 35597, 37062, 37698, 36239, 32203, 28954], [32767, 32767, 32768, 32768, 32768, 32768, 32767, 32767, 32767, 32767, 32767, 32767, 32767, 32767, 32767, 32767, 32767, 32767, 32768, 32768, 32767, 32767, 32767, 32767, 32767, 32767, 32768, 32767, 32767, 32767, 32767, 32767, 32767, 32767, 32767, 32767, 32767, 32768, 32768, 32768, 32768, 32767, 32767, 32767, 32767, 32767, 32767, 32767, 32767, 32767, 32767, 32767, 32767, 32768, 32768, 32767, 32767, 32767, 32767, 32767, 32767, 32768, 32767, 32767, 32767, 32767, 32767, 32767, 32767, 32767, 32767, 32767, 32768, 32768, 32768, 32768, 32767, 32767, 32767, 32767, 32767, 32767, 32767, 32767, 32767, 32767, 32767, 32767, 32768, 32768, 32767, 32767, 32767, 32767, 32767, 32767, 32768, 32767, 32767, 32767]], "framecount": 3.0, "time": 1489540476497}
{"dataframe": [[32615, 32577, 32546, 32475, 32555, 32790, 32955, 32888, 32728, 32724, 32845, 32909, 32933, 32960, 32821, 32485, 32331, 32604, 32919, 32864, 32743, 32959, 33190, 33027, 32674, 32395, 32291, 32510, 32792, 32742, 32709, 32994, 33144, 33033, 33007, 32946, 32703, 32590, 32648, 32597, 32489, 32452, 32398, 32476, 32875, 33253, 33307, 33229, 33096, 32844, 32638, 32493, 32333, 32373, 32615, 32781, 32873, 32965, 32935, 32806, 32709, 32621, 32590, 32786, 33051, 33035, 32874, 32857, 32782, 32549, 32501, 32674, 32823, 32894, 32767, 32449, 32400, 32726, 33001, 33129, 33158, 32926, 32662, 32714, 32829, 32739, 32610, 32553, 32560, 32691, 32839, 32828, 32728, 32672, 32702, 32885, 33114, 33091, 32837, 32677], [33177, 33278, 32753, 32386, 32006, 31613, 31934, 33223, 34674, 35252, 34716, 33626, 32458, 31359, 30865, 31537, 32725, 33264, 33083, 32648, 32000, 31350, 31354, 32361, 33933, 35077, 35169, 34517, 33594, 32442, 31314, 30921, 31552, 32500, 32875, 32679, 32393, 31981, 31449, 31710, 33288, 35009, 35526, 34941, 33936, 32802, 31712, 30899, 30744, 31530, 32628, 33101, 32978, 32682, 32275, 31990, 32331, 33372, 34457, 34841, 34461, 33660, 32609, 31515, 30919, 31258, 32238, 33026, 33152, 32795, 32299, 31884, 31791, 32421, 33784, 34934, 34948, 34144, 33242, 32200, 31101, 30926, 32014, 33127, 33281, 32849, 32314, 31745, 31411, 31746, 32914, 34400, 35175, 34885, 34120, 33185, 31982, 30995, 30964, 31822], [32323, 32382, 32575, 32704, 33097, 33437, 33185, 32512, 31895, 31591, 31722, 32416, 33678, 34693, 34137, 32257, 31019, 31339, 32346, 33316, 34117, 34442, 34122, 33384, 32397, 31358, 30779, 31051, 31927, 32850, 33596, 34060, 33847, 32910, 32189, 32420, 32883, 33191, 34744, 36873, 35157, 29069, 25258, 27712, 32421, 34815, 35028, 35058, 35323, 34852, 33595, 32616, 32154, 31838, 31883, 32270, 32281, 31761, 31384, 31557, 32154, 33009, 33946, 34651, 34737, 33991, 32833, 32089, 31943, 31964, 32145, 32795, 33533, 33420, 32246, 31035, 30836, 31492, 32499, 34465, 37068, 36955, 32932, 29593, 29872, 31091, 31740, 33065, 34393, 34373, 33656, 32847, 31899, 31490, 31986, 32666, 33128, 33521, 33570, 33067], [32329, 32314, 32370, 32382, 32359, 32410, 32556, 32818, 33205, 33507, 33492, 33285, 33108, 32836, 32426, 32243, 32398, 32520, 32455, 32436, 32594, 32783, 32878, 32941, 33042, 33130, 33119, 33027, 32923, 32768, 32583, 32684, 33072, 32946, 32050, 31501, 31761, 31490, 30276, 31066, 36432, 42191, 40900, 32713, 25466, 24617, 28518, 32072, 33015, 33455, 34757, 35413, 34823, 34093, 33508, 32825, 32382, 32207, 31935, 31748, 31944, 32228, 32329, 32463, 32790, 33166, 33491, 33724, 33649, 33136, 32490, 32123, 32130, 32422, 32771, 32878, 32811, 32774, 32525, 32066, 32361, 33784, 34723, 33927, 32650, 32175, 31871, 31366, 31418, 32038, 32575, 33120, 33823, 34176, 33996, 33574, 32961, 32281, 31933, 31983], [33049, 33253, 33090, 32770, 32201, 31781, 32165, 33150, 33977, 34288, 34103, 33559, 32807, 31848, 31046, 31213, 32237, 33047, 33266, 33271, 33151, 32772, 32298, 32219, 32778, 33473, 33721, 33575, 33199, 32561, 31897, 31720, 32284, 33092, 33343, 33044, 32678, 32180, 31669, 31900, 32894, 33706, 33863, 33715, 33663, 33602, 32899, 31575, 31065, 32035, 32997, 32983, 32805, 32751, 32330, 31901, 32165, 33092, 34055, 34359, 33923, 33329, 32802, 32070, 31469, 31756, 32621, 32986, 32755, 32572, 32404, 32007, 31926, 32627, 33627, 34350, 34650, 34257, 33146, 32032, 31439, 31342, 31768, 32431, 32793, 32998, 33208, 32857, 31998, 31777, 32666, 33835, 34456, 34419, 33895, 33026, 32025, 31241, 31113, 31783], [32762, 32717, 32699, 32664, 32715, 32909, 33078, 32956, 32571, 32303, 32353, 32521, 32732, 33111, 33399, 33190, 32704, 32495, 32585, 32622, 32588, 32703, 32877, 32917, 32905, 32908, 32813, 32651, 32564, 32573, 32701, 32911, 32979, 32815, 32621, 32573, 32646, 32799, 33040, 33224, 33114, 32744, 32398, 32315, 32505, 32747, 32836, 32819, 32812, 32815, 32787, 32758, 32802, 32896, 32923, 32920, 32955, 32871, 32623, 32458, 32467, 32504, 32552, 32721, 32991, 33160, 33059, 32767, 32564, 32660, 32913, 32957, 32809, 32828, 32936, 32717, 32319, 32232, 32436, 32681, 33024, 33399, 33374, 32877, 32461, 32437, 32545, 32674, 32928, 33124, 33021, 32685, 32389, 32399, 32677, 32872, 32853, 32859, 32938, 32858], [29668, 31944, 32942, 33995, 35429, 34546, 30818, 27641, 27990, 31056, 34106, 35858, 36924, 37462, 35630, 31285, 28836, 30451, 32448, 33078, 34268, 35231, 33306, 29434, 27533, 29258, 32432, 34815, 36310, 37352, 37087, 33970, 29680, 28779, 31201, 32818, 33556, 35163, 35355, 32144, 28417, 27824, 30131, 32895, 34951, 36536, 37546, 36528, 32664, 29175, 29615, 31862, 32938, 34189, 35803, 34668, 30499, 27278, 27836, 30885, 33897, 36049, 37518, 37827, 35460, 30850, 28466, 30344, 32555, 33212, 34528, 35698, 33651, 29416, 27256, 28835, 31974, 34539, 36329, 37466, 37113, 34134, 30119, 29115, 31187, 32696, 33515, 35182, 35471, 32176, 28000, 27255, 30034, 33051, 34915, 36577, 37860, 36867, 32974, 29359], [32767, 32767, 32767, 32767, 32767, 32767, 32767, 32768, 32768, 32768, 32768, 32767, 32767, 32767, 32767, 32767, 32767, 32767, 32767, 32767, 32767, 32767, 32767, 32768, 32768, 32767, 32767, 32767, 32767, 32767, 32767, 32768, 32767, 32767, 32767, 32767, 32767, 32767, 32767, 32767, 32767, 32767, 32768, 32768, 32768, 32768, 32767, 32767, 32767, 32767, 32767, 32767, 32767, 32767, 32767, 32767, 32767, 32767, 32768, 32768, 32767, 32767, 32767, 32767, 32767, 32767, 32768, 32767, 32767, 32767, 32767, 32767, 32767, 32767, 32767, 32767, 32767, 32768, 32768, 32768, 32768, 32767, 32767, 32767, 32767, 32767, 32767, 32767, 32767, 32767, 32767, 32767, 32767, 32768, 32768, 32767, 32767, 32767, 32767, 32767]], "framecount": 4.0, "time": 1489540476590}
{"dataframe": [[32664, 32632, 32595, 32631, 32714, 32825, 32933, 32895, 32665, 32484, 32563, 32735, 32857, 33092, 33322, 33119, 32627, 32386, 32408, 32452, 32631, 32986, 33150, 32899, 32579, 32571, 32698, 32680, 32708, 32924, 33051, 32998, 32920, 32767, 32598, 32640, 32670, 32510, 32590, 32935, 32957, 32723, 32727, 32801, 32688, 32683, 32879, 32957, 32887, 32837, 32774, 32714, 32756, 32773, 32662, 32603, 32684, 32753, 32745, 32718, 32661, 32671, 32875, 33057, 33036, 32930, 32780, 32666, 32696, 32675, 32588, 32725, 32914, 32827, 32692, 32689, 32628, 32593, 32794, 32965, 32822, 32646, 32758, 32937, 32945, 32913, 32852, 32705, 32707, 32874, 32813, 32497, 32351, 32479, 32595, 32670, 32938, 33274, 33306, 33063], [32727, 33093, 33030, 32666, 31929, 31345, 31871, 33412, 34665, 34892, 34598, 34183, 33223, 31586, 30358, 30681, 32065, 33113, 33370, 33110, 32467, 31841, 31848, 32585, 33655, 34419, 34461, 34062, 33476, 32505, 31469, 31227, 31906, 32698, 32986, 32908, 32678, 32151, 31431, 31354, 32567, 34300, 35174, 34953, 34267, 33383, 32259, 31116, 30685, 31514, 32738, 33060, 32731, 32538, 32256, 31874, 32213, 33309, 34288, 34786, 34736, 33879, 32580, 31577, 31046, 31197, 32213, 33191, 33197, 32646, 32193, 31774, 31559, 32256, 33798, 35001, 35077, 34382, 33376, 32195, 31281, 31188, 31872, 32728, 33106, 32850, 32348, 31853, 31407, 31535, 32776, 34440, 35245, 34997, 34333, 33409, 32132, 30984, 30762, 31649], [32516, 32299, 32356, 32742, 33361, 33668, 33304, 32490, 31752, 31449, 31508, 31918, 33009, 34452, 35041, 34307, 33204, 32671, 32407, 31464, 29995, 29783, 31812, 34268, 35097, 34774, 34355, 33629, 32683, 32263, 32268, 32041, 31552, 31312, 31674, 32433, 33156, 33813, 34481, 34664, 33845, 32500, 31542, 31233, 31476, 32099, 32650, 33017, 33398, 33499, 33340, 33562, 33665, 32657, 31614, 31990, 32792, 32786, 32593, 32486, 31983, 31960, 33241, 34440, 34156, 32958, 31971, 31715, 32134, 32693, 33118, 33824, 34613, 34088, 31946, 30097, 29782, 30203, 31458, 34993, 39074, 38825, 33627, 28645, 27433, 29022, 31551, 33882, 35234, 35497, 34844, 33422, 31946, 31264, 31383, 31862, 32560, 33273, 33409, 32845], [32192, 32453, 32682, 32714, 32589, 32581, 32828, 33156, 33323, 33402, 33575, 33525, 32733, 31447, 30702, 31263, 32789, 34179, 34712, 34526, 33845, 32638, 31386, 30917, 31273, 31882, 32496, 33142, 33653, 33803, 33642, 33425, 33221, 32887, 32522, 32397, 32384, 32160, 31880, 31960, 32416, 33008, 33550, 33701, 33330, 32971, 32911, 32747, 32472, 32522, 32744, 32705, 32500, 32451, 32567, 32616, 32541, 32622, 32977, 33278, 33308, 33184, 33053, 32903, 32615, 32343, 32397, 32577, 32575, 32626, 32798, 32702, 32526, 32813, 33121, 32893, 32808, 33108, 32737, 31823, 31735, 32573, 34077, 36064, 36134, 32909, 29800, 29418, 29955, 30458, 32030, 33961, 34876, 35103, 34958, 34173, 33243, 32627, 32042, 31592], [32683, 33152, 33154, 32855, 32396, 32161, 32477, 33265, 34063, 34289, 33846, 33179, 32547, 31871, 31348, 31495, 32266, 32867, 32951, 32992, 33151, 32995, 32503, 32333, 32890, 33675, 33872, 33398, 32879, 32564, 32108, 31688, 32013, 32847, 33226, 33087, 32859, 32410, 31836, 31840, 32630, 33640, 34272, 34242, 33663, 32923, 32214, 31589, 31488, 32218, 33051, 33149, 32834, 32614, 32255, 31830, 32055, 33095, 34164, 34483, 34072, 33404, 32680, 31896, 31360, 31526, 32270, 32943, 33220, 33192, 32829, 32164, 31721, 32127, 33284, 34268, 34361, 33780, 33104, 32549, 32071, 31862, 32095, 32329, 32240, 32372, 32892, 32956, 32350, 32081, 32730, 33747, 34384, 34299, 33664, 32952, 32236, 31432, 31178, 31917], [32672, 32660, 32789, 32841, 32863, 32959, 32945, 32699, 32503, 32548, 32599, 32556, 32672, 32936, 33011, 32885, 32849, 32865, 32755, 32682, 32797, 32899, 32834, 32760, 32753, 32667, 32549, 32573, 32648, 32682, 32803, 32944, 32919, 32858, 32892, 32850, 32711, 32708, 32837, 32873, 32789, 32685, 32622, 32642, 32650, 32584, 32676, 32960, 33065, 32894, 32708, 32623, 32632, 32730, 32869, 33051, 33150, 32888, 32465, 32387, 32578, 32638, 32638, 32844, 33109, 33055, 32675, 32452, 32632, 32813, 32814, 32988, 33222, 33029, 32609, 32464, 32528, 32511, 32426, 32518, 32945, 33421, 33417, 32880, 32309, 32133, 32367, 32763, 33102, 33292, 33259, 32978, 32618, 32428, 32447, 32516, 32581, 32719, 32876, 32870], [29450, 31627, 32917, 34005, 35358, 34535, 30723, 27375, 27919, 31188, 34006, 35803, 37323, 37749, 35526, 31302, 28831, 30041, 32077, 33093, 34418, 35428, 33717, 29932, 27676, 28887, 31915, 34435, 35982, 37147, 37326, 34560, 30096, 28871, 31166, 32655, 33345, 35120, 35467, 32293, 28425, 27551, 29824, 32840, 35033, 36548, 37545, 36762, 33093, 29319, 29403, 31746, 32840, 33734, 35360, 34874, 31244, 27885, 27907, 30593, 33480, 35530, 37084, 37835, 36028, 31622, 28748, 29934, 32093, 33114, 34468, 35531, 33774, 29890, 27542, 28684, 31724, 34366, 36037, 37197, 37400, 34907, 30548, 28901, 30854, 32410, 33056, 34779, 35550, 32804, 28734, 27416, 29583, 32674, 34916, 36597, 37794, 37035, 33258, 29317], [32767, 32768, 32767, 32767, 32767, 32767, 32767, 32767, 32767, 32767, 32767, 32767, 32768, 32768, 32768, 32768, 32767, 32767, 32767, 32767, 32767, 32767, 32767, 32767, 32767, 32767, 32767, 32767, 32768, 32768, 32767, 32767, 32767, 32767, 32767, 32767, 32768, 32767, 32767, 32767, 32767, 32767, 32767, 32767, 32767, 32767, 32767, 32768, 32768, 32768, 32768, 32767, 32767, 32767, 32767, 32767, 32767, 32767, 32767, 32767, 32767, 32767, 32767, 32768, 32768, 32767, 32767, 32767, 32767, 32767, 32767, 32768, 32767, 32767, 32767, 32767, 32767, 32767, 32767, 32767, 32767, 32767, 32768, 32768, 32768, 32768, 32767, 32767, 32767, 32767, 32767, 32767, 32767, 32767, 32767, 32767, 32767, 32767, 32768, 32768]], "framecount": 5.0, "time": 1489540476700}
{"dataframe": [[32837, 32694, 32605, 32558, 32486, 32492, 32716, 32887, 32736, 32545, 32622, 32811, 32916, 33012, 33163, 33226, 33043, 32661, 32340, 32295, 32464, 32669, 32857, 32965, 32874, 32680, 32630, 32773, 32915, 32889, 32775, 32767, 32889, 32986, 32895, 32591, 32360, 32563, 32986, 33051, 32742, 32517, 32574, 32780, 32899, 32811, 32712, 32799, 32894, 32815, 32774, 32858, 32793, 32673, 32805, 32934, 32785, 32638, 32607, 32473, 32398, 32733, 33184, 33185, 32861, 32706, 32726, 32715, 32759, 32842, 32727, 32557, 32657, 32848, 32852, 32802, 32788, 32746, 32776, 32823, 32708, 32641, 32775, 32811, 32744, 32858, 32947, 32776, 32696, 32862, 32883, 32664, 32498, 32481, 32643, 32920, 32949, 32741, 32742, 32910], [32707, 32949, 32619, 32364, 32147, 31924, 32231, 33355, 34580, 35027, 34747, 34081, 32893, 31387, 30459, 30694, 31750, 32783, 33331, 33487, 33195, 32381, 31659, 31834, 32954, 34248, 34861, 34602, 33850, 32863, 31699, 30861, 31123, 32253, 33036, 33000, 32686, 32256, 31651, 31555, 32593, 34182, 35132, 34985, 34277, 33496, 32433, 31177, 30760, 31590, 32500, 32642, 32559, 32547, 32187, 31748, 32107, 33368, 34663, 35146, 34728, 33838, 32764, 31600, 30834, 31219, 32396, 32970, 32712, 32649, 32789, 32286, 31540, 31831, 33230, 34469, 34738, 34359, 33762, 32986, 32108, 31465, 31559, 32318, 32792, 32571, 32271, 32048, 31608, 31538, 32586, 34155, 35079, 35025, 34279, 33325, 32552, 31784, 31189, 31579], [32341, 32396, 32898, 33666, 34120, 33760, 33072, 32565, 32311, 32171, 31211, 29438, 29486, 32570, 35695, 36340, 35810, 35634, 34517, 31418, 28905, 29584, 31739, 32789, 33292, 34064, 33892, 32218, 30564, 30655, 32663, 34913, 35410, 34272, 33276, 32970, 32648, 32434, 32640, 32579, 31949, 31486, 31588, 31995, 32287, 32095, 32028, 33118, 34563, 34814, 34277, 33945, 33450, 32572, 32095, 32261, 32386, 31953, 31015, 30284, 30851, 32572, 34007, 35094, 36389, 36000, 33103, 30991, 31081, 30747, 29637, 30455, 33583, 36157, 35767, 33356, 32148, 33273, 34224, 32712, 29966, 28991, 30616, 32862, 34095, 34561, 34834, 34959, 34747, 33796, 32179, 30789, 30151, 30179, 31137, 32893, 34124, 34168, 33844, 33415], [31671, 32081, 32351, 32107, 31527, 31583, 32480, 33048, 33098, 34305, 36917, 37804, 34815, 30657, 28762, 28779, 29289, 30578, 32696, 34416, 34832, 34257, 33769, 34014, 34320, 33847, 33019, 32564, 32186, 31443, 30749, 30693, 31399, 32554, 33523, 33937, 33997, 33883, 33505, 32974, 32668, 32678, 32704, 32598, 32477, 32406, 32371, 32401, 32508, 32650, 32831, 33006, 33034, 32897, 32752, 32750, 32944, 33260, 33559, 33644, 33027, 31411, 29870, 30077, 32043, 34115, 35002, 35059, 35149, 35111, 34985, 34377, 30553, 24807, 24846, 31222, 34822, 33750, 34711, 38283, 39200, 36394, 32675, 29928, 28781, 29059, 29787, 30584, 31893, 33459, 34552, 35105, 35154, 34560, 33753, 33236, 32720, 31898, 31322, 31377], [32789, 33027, 32993, 32935, 32575, 32085, 32091, 32790, 33700, 34409, 34700, 34065, 32625, 31505, 31151, 31261, 31892, 32744, 33118, 33080, 32950, 32605, 32299, 32713, 33711, 34249, 33817, 33072, 32718, 32483, 31840, 31326, 31908, 33080, 33459, 33051, 32726, 32434, 31937, 31860, 32625, 33643, 34237, 34274, 33806, 33051, 32322, 31653, 31328, 31892, 32843, 33120, 32862, 32701, 32449, 31997, 32010, 32912, 34130, 34690, 34255, 33275, 32256, 31494, 31439, 32314, 33222, 33042, 32274, 32190, 32590, 32439, 31985, 32370, 33671, 34637, 34405, 33558, 33018, 32601, 31697, 30914, 31385, 32663, 33359, 33335, 33205, 32837, 32098, 31754, 32396, 33501, 34181, 34162, 33705, 33059, 32287, 31574, 31431, 32065], [32722, 32691, 32879, 33096, 33110, 32915, 32752, 32726, 32627, 32458, 32511, 32675, 32647, 32625, 32818, 32981, 32991, 32988, 32902, 32699, 32688, 32900, 32938, 32751, 32592, 32446, 32350, 32557, 32924, 33036, 32982, 33035, 32986, 32709, 32559, 32647, 32691, 32652, 32705, 32844, 32955, 32931, 32793, 32706, 32684, 32643, 32644, 32671, 32682, 32831, 33015, 32880, 32654, 32789, 32987, 32822, 32611, 32713, 32864, 32812, 32714, 32633, 32506, 32504, 32757, 33033, 33046, 32857, 32768, 32858, 32880, 32753, 32688, 32730, 32738, 32701, 32640, 32551, 32574, 32785, 32921, 32867, 32909, 33016, 32879, 32659, 32645, 32719, 32779, 32874, 32878, 32723, 32614, 32588, 32518, 32576, 32878, 33090, 33054, 32964], [29209, 31451, 32657, 33768, 35415, 34824, 31290, 28011, 27895, 30641, 33772, 35669, 36794, 37492, 35967, 31637, 28709, 30115, 32487, 33306, 34360, 35388, 33679, 29709, 27243, 28439, 31676, 34573, 36553, 37720, 37474, 34708, 30360, 28441, 30290, 32500, 33632, 35001, 35474, 32933, 28867, 27247, 29424, 32790, 34990, 36351, 37452, 36930, 33422, 29499, 29285, 31618, 32881, 33732, 35223, 34857, 31470, 28025, 27747, 30417, 33402, 35305, 36763, 37816, 36536, 32293, 28887, 29537, 31836, 33183, 34559, 35666, 34010, 29870, 27108, 28237, 31596, 34462, 36078, 37045, 37464, 35611, 31153, 28511, 30211, 32486, 33291, 34568, 35439, 33205, 29175, 27363, 29167, 32373, 34729, 36205, 37484, 37479, 34237, 29753], [32767, 32767, 32767, 32767, 32767, 32767, 32768, 32767, 32767, 32767, 32767, 32767, 32767, 32767, 32767, 32767, 32767, 32768, 32768, 32768, 32768, 32767, 32767, 32767, 32767, 32767, 32767, 32767, 32767, 32767, 32767, 32767, 32767, 32768, 32768, 32767, 32767, 32767, 32767, 32767, 32767, 32768, 32767, 32767, 32767, 32767, 32767, 32767, 32767, 32767, 32767, 32767, 32768, 32768, 32768, 32768, 32767, 32767, 32767, 32767, 32767, 32767, 32767, 32767, 32767, 32767, 32767, 32767, 32768, 32768, 32767, 32767, 32767, 32767, 32767, 32767, 32768, 32767, 32767, 32767, 32767, 32767, 32767, 32767, 32767, 32767, 32767, 32768, 32768, 32768, 32768, 32767, 32767, 32767, 32767, 32767, 32767, 32767, 32767, 32767]], "framecount": 6.0, "time": 1489540476794}
{"dataframe": [[32942, 32899, 32819, 32672, 32677, 32848, 32845, 32634, 32533, 32585, 32581, 32590, 32799, 33061, 33163, 33074, 32830, 32651, 32694, 32680, 32514, 32610, 32982, 33052, 32718, 32499, 32565, 32649, 32687, 32777, 32940, 33126, 33137, 32837, 32502, 32469, 32662, 32809, 32849, 32855, 32815, 32709, 32633, 32693, 32832, 32815, 32621, 32639, 32928, 32970, 32772, 32860, 32981, 32677, 32445, 32646, 32831, 32860, 32887, 32760, 32601, 32728, 32873, 32752, 32658, 32749, 32796, 32787, 32866, 32896, 32762, 32670, 32786, 32957, 32888, 32570, 32431, 32641, 32774, 32711, 32823, 33049, 32996, 32801, 32752, 32713, 32659, 32745, 32795, 32727, 32772, 32863, 32745, 32545, 32492, 32559, 32758, 33089, 33232, 33030], [32502, 32677, 32316, 32116, 31848, 31667, 32255, 33468, 34586, 35134, 34858, 33936, 32929, 31984, 31074, 30872, 31759, 32753, 33003, 32831, 32508, 31927, 31557, 32140, 33547, 34787, 35120, 34620, 33716, 32705, 31668, 30859, 30979, 32128, 33102, 33072, 32610, 32211, 31777, 31740, 32694, 34135, 34958, 34758, 33951, 33131, 32437, 31642, 31131, 31637, 32652, 32985, 32716, 32530, 32204, 31659, 31791, 32936, 34205, 34794, 34631, 33946, 33045, 32138, 31411, 31347, 32150, 33045, 33222, 32748, 32071, 31500, 31269, 31777, 33212, 34716, 35163, 34735, 34148, 33234, 31854, 30930, 31216, 32122, 32655, 32661, 32514, 32333, 32004, 31794, 32390, 33757, 34826, 35005, 34591, 33689, 32338, 31128, 30797, 31535], [32607, 32207, 32790, 33478, 33642, 33634, 33381, 32423, 31218, 30750, 31220, 32092, 32958, 33706, 34136, 34021, 33491, 32924, 32528, 32336, 32440, 32855, 33274, 33228, 32574, 31768, 31464, 31856, 32548, 33044, 33300, 33510, 33531, 33211, 32857, 32749, 32829, 33002, 33070, 32818, 32433, 32240, 32206, 32305, 32801, 33475, 33366, 32108, 30582, 29904, 31056, 34571, 38243, 38009, 34211, 31597, 31254, 30437, 29461, 30239, 31728, 32897, 34353, 35155, 34334, 33344, 32774, 31644, 30893, 31876, 33395, 34235, 34752, 34493, 32853, 31259, 30955, 31209, 31584, 32507, 33442, 33533, 33071, 32678, 32513, 32979, 34403, 35428, 34364, 32271, 31141, 30711, 30374, 30813, 31999, 33083, 34021, 34833, 34792, 33780], [31521, 31641, 32303, 33167, 33440, 33331, 33318, 33375, 33464, 33402, 32926, 32527, 32704, 32794, 32201, 31669, 31940, 32569, 32948, 33115, 33186, 33092, 32899, 32811, 32931, 33074, 32981, 32745, 32622, 32563, 32459, 32450, 32638, 32847, 32835, 32717, 32875, 33178, 33096, 32745, 32485, 32021, 31489, 32028, 33801, 35100, 34589, 33078, 32055, 31664, 31315, 31274, 32287, 33819, 34241, 33265, 32343, 32242, 32408, 32563, 32895, 33201, 33220, 33115, 33008, 32766, 32516, 32536, 32704, 32713, 32521, 32266, 32183, 32525, 33114, 33359, 33152, 33053, 33263, 33325, 32963, 32460, 32192, 32165, 32006, 31397, 31034, 32637, 35888, 37086, 34583, 31680, 30792, 30721, 30853, 31744, 32690, 33125, 33608, 33951], [32831, 33083, 32954, 32730, 32426, 32157, 32255, 32952, 33867, 34261, 34025, 33521, 32766, 31812, 31203, 31443, 32349, 33119, 33256, 33065, 32836, 32425, 31996, 32158, 33017, 33892, 34239, 34081, 33469, 32435, 31435, 31165, 31868, 32964, 33566, 33379, 32793, 32155, 31614, 31577, 32415, 33709, 34599, 34664, 34079, 33200, 32195, 31226, 30886, 31581, 32698, 33442, 33732, 33531, 32621, 31466, 31198, 32299, 33810, 34493, 34331, 33914, 33222, 32189, 31403, 31421, 32099, 32832, 33129, 32921, 32417, 31966, 31959, 32549, 33499, 34306, 34469, 33918, 33139, 32501, 31797, 31152, 31443, 32576, 33147, 32928, 32937, 32983, 32403, 31985, 32494, 33342, 33944, 34173, 33803, 33043, 32398, 31862, 31558, 31923], [32801, 32563, 32530, 32653, 32651, 32709, 33025, 33191, 32920, 32605, 32560, 32587, 32577, 32658, 32781, 32839, 32886, 32919, 32883, 32837, 32771, 32681, 32721, 32837, 32797, 32707, 32759, 32793, 32645, 32505, 32607, 32824, 32897, 32887, 32915, 32863, 32766, 32809, 32929, 32947, 32815, 32561, 32346, 32381, 32606, 32780, 32886, 33020, 33072, 32963, 32827, 32737, 32704, 32777, 32823, 32711, 32615, 32650, 32680, 32661, 32675, 32739, 32855, 32982, 32972, 32812, 32681, 32634, 32624, 32712, 32890, 33012, 33045, 32992, 32759, 32439, 32305, 32415, 32583, 32729, 32951, 33159, 33089, 32862, 32802, 32782, 32667, 32714, 32869, 32777, 32600, 32667, 32734, 32559, 32493, 32771, 33025, 33002, 32923, 32895], [28853, 31138, 32554, 33389, 35183, 35370, 31995, 28048, 27492, 30235, 33345, 35342, 36816, 37780, 36482, 32324, 28958, 29667, 31977, 32992, 34008, 35330, 34278, 30507, 27637, 28385, 31335, 33949, 35740, 37117, 37548, 35464, 31167, 28833, 30448, 32422, 33087, 34489, 35593, 33324, 29022, 27187, 29132, 32323, 34842, 36564, 37489, 37048, 34188, 30093, 28838, 30929, 32687, 33608, 35120, 35164, 31852, 28020, 27624, 30434, 33338, 35186, 36852, 37929, 36463, 32210, 28820, 29479, 31909, 33086, 34134, 35579, 34660, 30666, 27363, 27952, 31163, 34070, 35806, 37026, 37551, 35572, 31151, 28701, 30356, 32417, 33223, 34753, 35828, 33530, 29186, 27020, 28685, 32067, 34769, 36342, 37311, 37226, 34410, 30026], [32767, 32767, 32767, 32768, 32768, 32767, 32767, 32767, 32767, 32767, 32767, 32768, 32767, 32767, 32767, 32767, 32767, 32767, 32767, 32767, 32767, 32767, 32768, 32768, 32768, 32768, 32767, 32767, 32767, 32767, 32767, 32767, 32767, 32767, 32767, 32767, 32767, 32767, 32768, 32768, 32767, 32767, 32767, 32767, 32767, 32767, 32768, 32767, 32767, 32767, 32767, 32767, 32767, 32767, 32767, 32767, 32767, 32768, 32768, 32768, 32768, 32767, 32767, 32767, 32767, 32767, 32767, 32767, 32767, 32767, 32767, 32767, 32767, 32768, 32768, 32767, 32767, 32767, 32767, 32767, 32767, 32768, 32767, 32767, 32767, 32767, 32767, 32767, 32767, 32767, 32767, 32767, 32768, 32768, 32768, 32768, 32767, 32767, 32767, 32767]], "framecount": 7.0, "time": 1489540476903}
{"dataframe": [[32777, 32673, 32702, 32798, 32739, 32513, 32491, 32683, 32743, 32735, 32805, 32767, 32782, 33076, 33176, 32866, 32690, 32748, 32649, 32486, 32563, 32775, 32895, 32923, 32912, 32698, 32287, 32251, 32809, 33287, 33281, 33129, 32973, 32650, 32350, 32368, 32564, 32682, 32789, 32992, 33084, 32891, 32658, 32630, 32677, 32704, 32789, 32830, 32770, 32821, 32927, 32808, 32608, 32632, 32765, 32839, 32921, 32933, 32734, 32510, 32475, 32580, 32765, 32972, 33076, 33083, 32966, 32596, 32300, 32528, 32948, 33030, 32904, 32822, 32679, 32472, 32447, 32637, 32799, 32890, 33072, 33216, 33039, 32677, 32530, 32604, 32601, 32550, 32673, 32850, 32871, 32835, 32819, 32766, 32756, 32774, 32683, 32695, 32937, 33029], [32622, 33073, 32832, 32473, 32129, 31784, 31902, 32869, 34222, 35002, 34804, 34048, 33146, 32098, 31164, 31008, 31739, 32629, 33079, 33063, 32658, 31961, 31418, 31709, 33014, 34526, 35309, 35180, 34266, 32803, 31387, 30593, 30752, 31845, 33117, 33686, 33429, 32645, 31656, 31124, 31750, 33279, 34591, 35003, 34707, 33981, 32833, 31560, 30969, 31499, 32454, 32917, 32871, 32583, 32011, 31452, 31581, 32673, 34167, 35036, 34939, 34445, 33713, 32357, 30867, 30505, 31524, 32790, 33309, 33076, 32480, 31829, 31492, 31956, 33285, 34566, 34878, 34508, 34039, 33245, 31932, 30847, 30911, 31905, 32740, 33005, 33009, 32689, 31987, 31613, 32288, 33656, 34628, 34701, 34264, 33642, 32740, 31662, 30959, 31140], [32793, 32393, 32181, 32102, 32501, 33033, 33063, 32591, 32001, 31630, 31759, 32405, 33175, 33700, 33925, 33761, 33161, 32582, 32436, 32381, 32218, 32513, 33217, 33519, 33602, 33615, 32134, 29677, 29698, 32451, 34390, 34845, 35731, 36067, 33366, 28919, 27127, 29631, 33541, 35932, 36429, 35525, 33835, 32299, 31338, 30896, 31137, 31852, 32229, 32097, 32198, 32869, 33656, 34282, 34749, 34764, 34084, 32919, 31669, 30779, 30489, 30639, 31191, 32210, 33301, 34459, 36109, 36681, 34066, 30527, 29967, 31536, 32463, 32838, 33059, 32564, 32170, 32601, 32879, 32804, 33259, 33810, 33506, 32934, 32963, 32972, 32344, 31956, 32370, 32673, 32376, 32191, 32466, 32789, 32965, 33126, 33326, 33565, 33620, 33123], [33680, 33416, 33434, 33091, 32347, 31775, 31707, 32203, 32889, 33148, 32931, 32627, 32507, 32724, 33140, 33299, 33087, 32832, 32668, 32684, 33057, 33335, 33083, 32461, 31074, 29878, 31883, 35529, 35404, 32476, 31594, 31979, 31772, 33445, 36722, 36806, 33211, 30224, 29252, 29020, 29756, 31695, 33594, 34814, 35560, 35517, 34569, 33477, 32707, 32094, 31690, 31587, 31554, 31553, 31798, 32262, 32739, 33142, 33562, 34092, 34379, 33909, 32922, 32097, 31581, 31325, 31787, 33201, 34461, 34238, 32962, 31892, 31321, 31267, 31945, 32870, 33448, 33882, 34196, 33920, 33178, 32444, 31846, 31683, 32212, 32827, 32862, 32621, 32629, 32761, 32772, 32827, 33032, 33173, 33172, 33165, 33067, 32710, 32338, 32300], [32554, 32792, 32856, 32907, 32614, 32181, 32255, 32949, 33785, 34238, 34067, 33435, 32684, 31978, 31439, 31456, 32188, 32990, 33268, 33262, 33112, 32472, 31656, 31641, 32665, 33956, 34713, 34550, 33551, 32365, 31575, 31283, 31675, 32663, 33244, 32965, 32673, 32626, 32196, 31797, 32430, 33635, 34264, 34327, 34125, 33316, 32144, 31414, 31266, 31638, 32558, 33343, 33307, 32837, 32436, 32034, 31933, 32678, 33782, 34324, 34284, 33937, 33103, 31892, 31028, 31115, 32119, 33287, 33673, 33166, 32490, 32066, 31798, 31909, 32751, 33881, 34511, 34530, 34131, 33191, 31862, 30954, 31074, 31877, 32647, 33103, 33235, 32985, 32411, 31926, 32227, 33394, 34347, 34305, 33821, 33382, 32649, 31663, 31204, 31657], [32800, 32675, 32646, 32683, 32712, 32767, 32843, 32825, 32736, 32700, 32712, 32750, 32837, 32860, 32749, 32703, 32760, 32693, 32607, 32752, 32906, 32902, 32957, 33004, 32825, 32667, 32700, 32642, 32432, 32390, 32604, 32843, 32969, 33022, 33046, 33001, 32860, 32730, 32713, 32728, 32692, 32657, 32604, 32492, 32505, 32764, 32987, 32972, 32941, 32982, 32882, 32658, 32590, 32718, 32820, 32834, 32844, 32789, 32627, 32518, 32569, 32720, 32864, 32933, 32916, 32828, 32774, 32868, 32936, 32728, 32456, 32532, 32866, 33001, 32838, 32709, 32768, 32774, 32619, 32555, 32700, 32845, 32862, 32836, 32801, 32751, 32784, 32921, 32995, 32926, 32808, 32687, 32583, 32541, 32461, 32352, 32520, 32929, 33132, 33132], [28820, 31304, 33117, 33615, 34808, 35053, 32133, 28218, 27257, 29842, 33223, 35416, 36775, 37773, 36885, 32798, 28859, 29273, 31799, 32839, 33865, 35461, 34541, 30806, 27946, 28348, 31009, 33843, 35758, 36898, 37321, 35477, 31179, 28707, 30475, 32769, 33462, 34552, 35455, 33453, 29392, 27115, 28580, 31953, 34590, 36198, 37576, 37627, 34452, 30039, 29044, 31211, 32607, 33289, 34864, 35241, 32362, 28384, 27178, 29654, 33196, 35496, 36746, 37598, 36781, 32955, 29037, 29253, 31896, 33107, 33818, 35186, 34592, 31040, 27868, 28057, 30830, 33750, 35624, 36731, 37329, 35964, 31879, 28883, 30079, 32371, 33260, 34506, 35655, 33731, 29480, 27091, 28461, 31644, 34451, 36405, 37626, 37526, 34725, 30267], [32767, 32767, 32767, 32767, 32767, 32767, 32767, 32767, 32768, 32768, 32767, 32767, 32767, 32767, 32767, 32767, 32768, 32767, 32767, 32767, 32767, 32767, 32767, 32767, 32767, 32767, 32767, 32768, 32768, 32768, 32768, 32767, 32767, 32767, 32767, 32767, 32767, 32767, 32767, 32767, 32767, 32767, 32767, 32768, 32768, 32767, 32767, 32767, 32767, 32767, 32767, 32768, 32767, 32767, 32767, 32767, 32767, 32767, 32767, 32767, 32767, 32767, 32768, 32768, 32768, 32768, 32767, 32767, 32767, 32767, 32767, 32767, 32767, 32767, 32767, 32767, 32767, 32767, 32768, 32768, 32767, 32767, 32767, 32767, 32767, 32767, 32768, 32767, 32767, 32767, 32767, 32767, 32767, 32767, 32767, 32767, 32767, 32768, 32768, 32768]], "framecount": 8.0, "time": 1489540476997}
{"dataframe": [[32880, 32765, 32602, 32416, 32584, 32940, 33026, 32902, 32709, 32473, 32510, 32827, 32889, 32731, 32854, 33067, 32997, 32861, 32751, 32555, 32531, 32762, 32868, 32753, 32621, 32522, 32477, 32595, 32867, 33124, 33206, 33163, 33075, 32820, 32472, 32363, 32469, 32561, 32697, 32865, 32888, 32840, 32796, 32648, 32598, 32855, 33073, 33014, 32920, 32819, 32611, 32538, 32664, 32695, 32655, 32788, 32948, 32892, 32714, 32536, 32463, 32693, 33068, 33142, 32957, 32882, 32886, 32716, 32459, 32369, 32488, 32731, 32998, 33087, 32882, 32649, 32683, 32792, 32710, 32696, 32947, 33034, 32744, 32550, 32672, 32808, 32853, 32832, 32676, 32615, 32802, 32817, 32568, 32612, 32963, 33030, 32756, 32640, 32834, 32970], [32064, 32995, 33327, 32995, 32287, 31690, 31772, 32729, 34018, 34727, 34546, 33970, 33320, 32388, 31336, 31012, 31797, 32814, 33106, 32845, 32441, 31836, 31386, 31913, 33393, 34735, 35155, 34815, 33993, 32783, 31510, 30696, 30877, 32026, 33091, 33280, 32971, 32481, 31797, 31535, 32321, 33757, 34883, 35058, 34314, 33241, 32304, 31471, 30998, 31518, 32610, 33069, 32844, 32641, 32375, 31852, 31717, 32554, 33920, 34867, 34919, 34209, 33179, 32248, 31448, 30942, 31326, 32411, 33181, 33340, 33118, 32415, 31561, 31534, 32604, 33873, 34568, 34712, 34347, 33369, 32138, 31298, 31238, 31885, 32641, 32911, 32712, 32333, 31907, 31758, 32384, 33595, 34502, 34678, 34384, 33749, 32758, 31731, 31151, 31374], [32326, 31910, 31976, 32302, 32874, 33417, 33483, 33105, 32561, 32029, 31812, 32097, 32656, 33261, 33745, 33701, 33065, 32486, 32311, 32257, 32445, 33339, 34378, 34141, 32403, 30735, 30417, 31129, 32179, 33391, 34522, 35006, 34430, 33165, 32207, 31923, 31888, 32098, 32755, 33315, 33155, 32473, 31915, 31904, 32297, 32672, 33076, 33758, 34174, 33598, 32612, 32310, 32466, 32347, 32303, 32756, 32973, 32426, 32143, 32953, 33646, 33129, 32462, 32671, 33265, 33690, 33616, 32416, 30337, 29175, 30436, 33387, 35932, 36716, 35773, 34083, 32564, 31263, 30242, 30202, 31185, 32262, 32862, 33105, 33213, 33404, 33812, 34193, 34233, 33929, 33253, 32159, 31096, 30674, 31014, 31805, 32690, 33519, 34113, 34045], [32461, 32565, 32691, 32775, 32633, 32564, 32742, 32854, 32985, 33337, 33429, 33018, 32667, 32620, 32549, 32415, 32402, 32497, 32646, 32778, 32781, 32756, 32841, 32962, 33068, 33143, 32997, 32656, 32481, 32601, 32826, 32965, 32926, 32758, 32505, 32227, 32248, 32672, 32982, 32900, 32851, 33103, 33332, 33205, 32888, 32729, 32652, 32434, 32280, 32422, 32670, 32828, 32957, 33023, 32856, 32564, 32401, 32180, 31721, 32123, 34391, 36294, 34824, 31724, 30794, 31630, 31865, 31882, 32670, 33337, 33266, 32991, 32686, 32378, 32514, 33036, 33371, 33424, 33387, 33152, 32686, 32295, 32165, 32218, 32419, 32667, 32766, 32746, 32722, 32695, 32726, 32910, 33216, 33474, 33414, 33012, 32602, 32352, 32195, 32231], [32432, 32845, 32920, 32862, 32571, 32160, 32154, 32901, 33959, 34439, 34148, 33621, 32985, 32021, 31151, 31149, 32016, 32956, 33343, 33151, 32665, 32248, 32112, 32375, 33187, 34141, 34380, 33836, 33116, 32356, 31553, 31262, 31907, 32965, 33496, 33270, 32778, 32310, 31871, 31735, 32317, 33441, 34273, 34304, 33920, 33524, 32825, 31704, 31062, 31617, 32560, 32858, 32798, 32843, 32677, 32246, 32143, 32754, 33767, 34463, 34417, 33748, 32787, 31880, 31324, 31301, 31795, 32516, 33171, 33564, 33374, 32601, 31924, 31950, 32663, 33667, 34332, 34175, 33497, 32838, 32106, 31317, 31256, 32180, 33123, 33365, 33146, 32695, 32079, 31747, 32204, 33311, 34308, 34551, 34059, 33231, 32357, 31592, 31214, 31582], [33183, 33041, 32623, 32481, 32735, 32847, 32727, 32680, 32649, 32580, 32642, 32727, 32699, 32777, 32964, 32959, 32838, 32835, 32805, 32693, 32748, 32899, 32875, 32785, 32768, 32667, 32488, 32441, 32555, 32758, 32975, 33018, 32876, 32837, 32971, 32945, 32656, 32523, 32741, 32920, 32845, 32728, 32626, 32543, 32634, 32722, 32613, 32699, 33074, 33137, 32835, 32715, 32769, 32747, 32809, 32929, 32815, 32616, 32594, 32615, 32615, 32736, 32841, 32737, 32659, 32781, 32879, 32888, 32916, 32884, 32844, 32915, 32900, 32757, 32697, 32607, 32392, 32384, 32657, 32811, 32796, 32915, 33038, 32880, 32736, 32916, 33054, 32842, 32632, 32695, 32784, 32726, 32640, 32551, 32435, 32468, 32736, 33004, 33100, 33112], [28629, 30762, 32713, 33590, 35078, 35403, 32370, 28269, 27163, 29737, 33175, 35348, 36563, 37363, 36620, 33145, 29442, 29423, 31791, 32996, 33746, 35151, 34736, 31238, 27785, 27808, 30741, 33729, 35618, 36987, 37634, 35887, 31661, 28842, 29986, 32160, 33159, 34485, 35645, 33939, 29912, 27352, 28398, 31545, 34339, 36027, 37242, 37667, 35191, 30426, 28470, 30705, 32752, 33455, 34841, 35337, 32606, 28717, 27452, 29566, 32787, 35106, 36461, 37350, 36821, 33479, 29461, 28989, 31510, 33288, 34146, 35218, 34718, 31343, 27780, 27553, 30409, 33518, 35585, 37036, 37721, 36168, 32082, 28989, 29802, 32028, 33059, 34178, 35448, 34170, 30213, 27410, 28372, 31439, 34104, 35972, 37362, 37587, 35175, 30887], [32768, 32767, 32767, 32767, 32767, 32767, 32767, 32767, 32767, 32767, 32767, 32767, 32767, 32768, 32768, 32767, 32767, 32767, 32767, 32767, 32767, 32768, 32767, 32767, 32767, 32767, 32767, 32767, 32767, 32767, 32767, 32767, 32768, 32768, 32768, 32768, 32767, 32767, 32767, 32767, 32767, 32767, 32767, 32767, 32767, 32767, 32767, 32767, 32768, 32768, 32767, 32767, 32767, 32767, 32767, 32767, 32768, 32767, 32767, 32767, 32767, 32767, 32767, 32767, 32767, 32767, 32767, 32768, 32768, 32768, 32768, 32767, 32767, 32767, 32767, 32767, 32767, 32767, 32767, 32767, 32767, 32767, 32767, 32768, 32768, 32767, 32767, 32767, 32767, 32767, 32767, 32768, 32767, 32767, 32767, 32767, 32767, 32767, 32767, 32767]], "framecount": 9.0, "time": 1489540477091}
{"dataframe": [[32821, 32622, 32613, 32738, 32830, 32825, 32822, 32883, 32795, 32514, 32430, 32603, 32687, 32760, 33042, 33213, 33050, 32885, 32821, 32621, 32488, 32682, 32797, 32618, 32571, 32681, 32657, 32691, 32862, 32891, 32902, 33090, 33150, 32941, 32695, 32469, 32362, 32584, 32840, 32796, 32777, 32913, 32762, 32401, 32429, 32853, 33180, 33202, 33038, 32859, 32743, 32665, 32604, 32542, 32479, 32574, 32826, 32877, 32693, 32677, 32867, 32947, 32883, 32894, 33024, 32979, 32622, 32377, 32558, 32838, 32847, 32699, 32707, 32887, 32941, 32719, 32487, 32534, 32727, 32820, 32917, 33078, 33040, 32828, 32747, 32724, 32617, 32649, 32818, 32776, 32552, 32512, 32701, 32846, 32780, 32655, 32800, 33136, 33203, 32977], [32254, 32929, 32871, 32576, 32321, 31813, 31573, 32500, 34005, 34806, 34897, 34678, 33761, 32218, 31029, 30793, 31410, 32383, 32981, 32903, 32512, 32219, 32082, 32221, 33019, 34214, 34798, 34519, 33986, 33275, 32075, 30914, 30845, 31866, 32779, 32953, 32802, 32534, 32067, 31834, 32381, 33536, 34578, 34914, 34458, 33583, 32619, 31589, 30827, 31074, 32232, 33136, 33165, 32805, 32402, 31857, 31674, 32605, 34072, 34784, 34597, 34095, 33310, 32196, 31278, 31100, 31725, 32681, 33237, 33131, 32662, 32034, 31436, 31517, 32682, 34235, 35154, 35122, 34368, 33215, 31959, 30964, 30809, 31621, 32530, 32876, 32921, 32778, 32281, 31850, 32175, 33303, 34495, 34897, 34444, 33717, 32876, 31697, 30755, 31048], [33370, 32944, 33080, 33032, 32561, 32400, 32510, 32025, 31685, 33150, 34837, 33550, 30810, 30606, 32368, 33235, 33288, 33528, 33591, 33442, 33440, 33288, 32956, 32719, 32162, 31454, 31848, 32920, 32588, 31244, 31495, 33354, 34405, 34151, 33843, 33568, 32965, 32642, 32814, 32816, 32365, 31725, 31259, 31327, 31893, 32564, 33275, 34117, 34609, 34167, 33160, 32516, 32412, 32362, 32347, 32680, 32976, 32606, 31948, 31766, 31984, 32306, 32869, 33568, 34009, 34025, 33543, 32770, 32277, 32175, 32169, 32361, 32968, 33674, 33770, 32791, 31299, 30641, 31297, 32433, 33468, 34394, 34677, 33951, 33081, 32748, 32514, 32264, 32418, 32685, 32480, 31978, 31703, 31793, 32141, 32732, 33538, 34277, 34464, 33839], [32505, 32766, 32913, 33056, 32987, 32541, 32230, 32383, 32529, 32656, 33499, 34653, 34580, 33148, 31795, 31262, 31259, 31629, 32300, 32838, 33048, 33326, 33741, 33852, 33804, 33512, 31728, 29604, 31039, 34994, 35766, 33262, 32027, 32273, 31980, 31965, 32641, 32642, 32232, 32460, 32827, 32972, 33371, 33739, 33638, 33459, 33222, 32544, 31871, 31813, 32104, 32307, 32445, 32625, 32808, 32943, 33041, 33193, 33420, 33512, 33290, 32917, 32617, 32340, 32025, 31937, 32297, 32817, 33061, 33008, 32899, 32799, 32669, 32684, 33017, 33337, 33213, 32864, 32699, 32598, 32389, 32327, 32519, 32693, 32785, 32898, 32912, 32835, 32831, 32752, 32560, 32632, 32960, 33101, 33053, 33033, 32864, 32527, 32439, 32641], [32515, 33184, 33205, 33003, 32747, 32222, 31845, 32337, 33420, 34218, 34475, 34188, 33241, 32037, 31203, 31032, 31716, 32857, 33455, 33301, 32943, 32456, 31891, 31941, 32846, 33827, 34269, 34255, 33853, 32977, 31832, 31030, 31223, 32249, 33080, 33238, 33155, 32878, 32198, 31760, 32239, 33205, 33896, 34124, 34069, 33811, 33157, 32031, 31127, 31277, 32119, 32698, 32870, 32826, 32540, 32321, 32452, 32844, 33495, 34251, 34561, 34106, 33112, 32018, 31175, 30948, 31614, 32677, 33193, 33078, 32900, 32717, 32335, 32215, 32937, 33990, 34343, 33951, 33385, 32713, 31882, 31303, 31416, 32149, 32906, 33164, 33051, 32924, 32714, 32310, 32180, 32772, 33654, 34126, 34097, 33659, 32727, 31656, 31277, 31836], [33008, 32747, 32592, 32667, 32775, 32818, 32788, 32661, 32560, 32658, 32889, 32988, 32825, 32599, 32562, 32668, 32743, 32796, 32859, 32876, 32961, 33110, 32995, 32656, 32506, 32532, 32544, 32661, 32812, 32764, 32695, 32794, 32849, 32807, 32887, 32953, 32787, 32678, 32851, 32981, 32852, 32686, 32625, 32599, 32584, 32559, 32521, 32630, 32913, 33108, 33086, 32963, 32830, 32748, 32781, 32846, 32760, 32547, 32472, 32624, 32760, 32712, 32647, 32756, 32956, 33046, 32954, 32786, 32690, 32727, 32813, 32782, 32682, 32717, 32810, 32756, 32683, 32730, 32721, 32635, 32711, 32851, 32818, 32808, 32939, 32895, 32699, 32732, 32886, 32853, 32755, 32754, 32718, 32553, 32421, 32518, 32793, 33005, 33015, 32888], [28876, 30494, 32277, 33125, 34639, 35416, 33090, 29136, 27378, 29299, 32725, 35110, 36319, 37308, 37131, 33738, 29294, 28804, 31430, 32834, 33646, 35400, 35374, 31977, 28177, 27471, 29975, 33209, 35458, 36841, 37543, 36269, 32280, 28955, 29753, 32213, 33261, 34239, 35385, 34065, 30287, 27528, 28240, 31342, 34219, 35863, 36995, 37511, 35427, 30937, 28668, 30539, 32681, 33395, 34565, 35332, 33103, 29027, 27308, 29451, 32639, 34601, 36000, 37413, 37314, 34051, 29745, 28875, 31194, 32865, 33721, 35135, 35218, 32155, 28154, 27130, 29862, 33461, 35644, 36771, 37476, 36489, 32676, 29015, 29369, 31909, 33160, 34004, 35194, 34338, 30873, 27952, 28265, 31063, 33876, 35557, 36732, 37475, 35779, 31368], [32767, 32767, 32768, 32768, 32768, 32768, 32767, 32767, 32767, 32767, 32767, 32767, 32767, 32767, 32767, 32767, 32767, 32767, 32768, 32768, 32767, 32767, 32767, 32767, 32767, 32767, 32768, 32767, 32767, 32767, 32767, 32767, 32767, 32767, 32767, 32767, 32767, 32768, 32768, 32768, 32768, 32767, 32767, 32767, 32767, 32767, 32767, 32767, 32767, 32767, 32767, 32767, 32767, 32768, 32768, 32767, 32767, 32767, 32767, 32767, 32767, 32768, 32767, 32767, 32767, 32767, 32767, 32767, 32767, 32767, 32767, 32767, 32768, 32768, 32768, 32768, 32767, 32767, 32767, 32767, 32767, 32767, 32767, 32767, 32767, 32767, 32767, 32767, 32768, 32768, 32767, 32767, 32767, 32767, 32767, 32767, 32768, 32767, 32767, 32767]], "framecount": 10.0, "time": 1489540477200}
{"dataframe": [[32794, 32657, 32459, 32398, 32599, 32792, 32792, 32801, 32917, 32900, 32683, 32565, 32732, 32963, 32997, 32904, 32811, 32660, 32553, 32669, 32827, 32822, 32804, 32831, 32740, 32591, 32594, 32659, 32659, 32809, 33108, 33132, 32845, 32665, 32694, 32741, 32738, 32680, 32672, 32838, 32953, 32778, 32546, 32493, 32521, 32655, 32964, 33153, 33086, 32979, 32799, 32524, 32518, 32794, 32909, 32801, 32693, 32614, 32599, 32661, 32662, 32681, 32879, 33032, 32977, 32935, 32921, 32742, 32566, 32619, 32746, 32798, 32810, 32737, 32614, 32598, 32668, 32767, 32938, 33019, 32865, 32741, 32788, 32761, 32677, 32714, 32756, 32789, 32892, 32888, 32750, 32662, 32578, 32475, 32545, 32771, 32957, 33063, 33083, 32954], [32256, 33065, 33083, 32803, 32402, 31915, 31775, 32425, 33658, 34637, 34789, 34391, 33727, 32534, 31155, 30805, 31690, 32600, 32889, 32901, 32620, 31936, 31554, 32142, 33340, 34282, 34597, 34566, 34285, 33364, 31919, 30894, 30975, 31869, 32691, 32944, 32880, 32666, 32107, 31578, 32000, 33448, 34766, 35040, 34539, 33759, 32697, 31455, 30688, 31083, 32314, 33172, 33215, 32941, 32430, 31689, 31534, 32520, 33936, 34687, 34562, 34121, 33602, 32698, 31524, 30923, 31420, 32417, 32980, 33012, 32800, 32244, 31578, 31705, 32922, 34287, 34831, 34557, 33916, 33191, 32422, 31541, 31008, 31546, 32618, 32994, 32715, 32517, 32273, 31805, 31943, 33132, 34418, 34956, 34766, 33917, 32697, 31678, 31078, 31166], [32814, 32155, 32038, 32096, 32307, 32863, 33369, 33167, 32379, 31857, 32011, 32412, 32642, 32900, 33449, 33769, 33263, 32612, 32541, 32428, 32352, 33616, 35257, 34471, 31707, 30057, 30172, 30840, 31957, 33376, 34241, 34570, 34617, 33927, 32785, 32235, 32303, 32345, 32395, 32719, 33039, 32797, 31939, 31338, 31664, 32409, 33120, 33986, 34511, 33949, 32928, 32479, 32402, 32258, 32446, 33080, 33359, 32813, 31996, 31555, 31618, 32103, 32810, 33472, 33990, 34170, 33716, 32892, 32311, 32134, 32243, 32627, 33103, 33224, 32726, 31939, 31579, 31967, 32656, 33111, 33465, 33936, 33943, 33036, 32123, 32122, 32513, 32733, 33056, 33368, 33163, 32549, 31935, 31575, 31760, 32479, 33194, 33625, 33878, 33678], [32733, 32659, 32588, 32516, 32565, 32827, 33013, 33024, 33101, 33086, 32744, 32510, 32700, 32923, 32939, 32871, 32691, 32467, 32445, 32442, 31888, 31055, 31774, 34837, 37177, 35696, 32405, 30816, 30710, 30716, 31188, 32163, 32926, 33555, 34080, 34030, 33650, 33347, 32848, 32205, 32001, 32258, 32502, 32593, 32714, 32878, 32901, 32795, 32773, 32870, 32898, 32871, 33031, 33203, 32837, 32107, 31873, 32295, 32772, 33116, 33433, 33439, 33065, 32737, 32599, 32486, 32472, 32627, 32763, 32744, 32682, 32701, 32648, 32466, 32551, 33020, 33338, 33258, 33091, 32939, 32661, 32393, 32356, 32521, 32780, 32960, 32862, 32620, 32503, 32485, 32550, 32827, 33151, 33257, 33194, 33023, 32729, 32522, 32574, 32697], [32589, 32856, 32781, 32745, 32679, 32359, 32144, 32691, 33734, 34277, 34082, 33585, 32921, 32168, 31570, 31350, 31843, 32842, 33368, 33148, 32813, 32517, 32134, 32157, 32902, 33707, 33941, 33806, 33463, 32751, 32051, 31866, 32047, 32404, 32864, 33046, 32802, 32437, 32043, 31682, 31991, 33313, 34620, 34743, 34004, 33313, 32710, 31879, 31174, 31311, 32183, 32874, 33095, 33244, 33104, 32301, 31656, 32204, 33438, 34170, 34231, 33955, 33294, 32388, 31675, 31418, 31820, 32660, 33104, 32918, 32672, 32455, 32062, 32060, 32938, 33965, 34278, 34048, 33634, 32978, 32142, 31406, 31217, 31963, 33045, 33397, 33038, 32617, 32249, 31963, 32198, 33067, 33954, 34321, 34152, 33515, 32607, 31844, 31509, 31763], [32815, 32882, 32893, 32747, 32676, 32713, 32677, 32680, 32795, 32811, 32732, 32697, 32655, 32653, 32787, 32873, 32828, 32839, 32870, 32770, 32700, 32778, 32904, 33023, 32989, 32672, 32361, 32352, 32496, 32625, 32834, 33093, 33120, 32879, 32706, 32770, 32896, 32910, 32815, 32742, 32721, 32597, 32417, 32463, 32704, 32855, 32881, 32934, 33020, 32962, 32734, 32641, 32802, 32842, 32584, 32484, 32814, 33083, 32931, 32736, 32710, 32626, 32562, 32668, 32748, 32779, 32892, 32924, 32803, 32705, 32674, 32752, 32979, 33090, 32907, 32657, 32510, 32464, 32562, 32712, 32779, 32838, 32885, 32824, 32830, 32952, 32844, 32593, 32718, 33043, 33001, 32749, 32646, 32532, 32427, 32612, 32808, 32697, 32705, 32990], [28742, 30343, 32533, 33342, 34606, 35506, 33337, 29206, 27203, 28951, 32182, 34621, 36276, 37577, 37401, 34147, 29749, 28819, 31209, 32866, 33612, 35041, 35272, 32403, 28493, 27243, 29576, 32983, 35250, 36610, 37606, 36823, 33034, 29224, 29309, 31690, 33089, 34155, 35367, 34412, 30772, 27624, 27895, 30894, 33991, 35955, 37144, 37520, 35610, 31352, 28733, 30172, 32353, 33147, 34442, 35673, 33775, 29488, 27243, 28956, 32113, 34384, 36007, 37349, 37295, 34398, 30195, 29001, 31124, 32698, 33331, 34871, 35485, 32633, 28405, 27185, 29670, 32920, 35231, 36852, 37627, 36515, 32922, 29309, 29270, 31612, 33061, 34181, 35554, 34689, 30977, 27734, 27839, 30608, 33601, 35635, 37000, 37605, 35898, 31672], [32767, 32767, 32767, 32767, 32767, 32767, 32767, 32768, 32768, 32768, 32768, 32767, 32767, 32767, 32767, 32767, 32767, 32767, 32767, 32767, 32767, 32767, 32767, 32768, 32768, 32767, 32767, 32767, 32767, 32767, 32767, 32768, 32767, 32767, 32767, 32767, 32767, 32767, 32767, 32767, 32767, 32767, 32768, 32768, 32768, 32768, 32767, 32767, 32767, 32767, 32767, 32767, 32767, 32767, 32767, 32767, 32767, 32767, 32768, 32768, 32767, 32767, 32767, 32767, 32767, 32767, 32768, 32767, 32767, 32767, 32767, 32767, 32767, 32767, 32767, 32767, 32767, 32768, 32768, 32768, 32768, 32767, 32767, 32767, 32767, 32767, 32767, 32767, 32767, 32767, 32767, 32767, 32767, 32768, 32768, 32767, 32767, 32767, 32767, 32767]], "framecount": 11.0, "time": 1489540477278}
{"dataframe": [[32782, 32737, 32741, 32623, 32492, 32571, 32783, 32869, 32777, 32683, 32682, 32701, 32812, 33048, 33091, 32884, 32763, 32712, 32570, 32532, 32634, 32683, 32787, 33007, 33025, 32788, 32626, 32609, 32616, 32706, 32845, 32847, 32826, 32928, 32908, 32701, 32627, 32754, 32886, 32922, 32779, 32537, 32497, 32628, 32651, 32697, 32964, 33115, 32905, 32733, 32844, 32912, 32729, 32537, 32603, 32852, 32968, 32835, 32589, 32403, 32470, 32757, 32932, 32958, 33074, 33104, 32817, 32581, 32640, 32703, 32734, 32819, 32728, 32577, 32671, 32784, 32804, 32922, 32861, 32548, 32627, 33042, 32978, 32574, 32564, 32830, 32932, 32938, 32961, 32890, 32695, 32492, 32405, 32468, 32601, 32738, 32907, 33111, 33219, 33060], [32090, 32952, 33045, 32864, 32550, 31815, 31446, 32331, 33805, 34664, 34749, 34467, 33711, 32395, 31267, 31062, 31641, 32465, 33065, 33112, 32664, 32056, 31540, 31534, 32552, 34152, 35117, 35024, 34351, 33428, 32288, 31146, 30696, 31404, 32506, 32982, 32939, 32744, 32254, 31724, 31973, 33191, 34506, 34986, 34575, 33795, 32874, 31804, 31044, 31170, 31944, 32677, 33106, 33070, 32440, 31762, 31707, 32338, 33534, 34801, 35100, 34303, 33453, 32737, 31481, 30502, 31285, 32928, 33399, 32834, 32437, 32119, 31580, 31554, 32616, 34134, 35020, 34982, 34485, 33667, 32311, 30933, 30623, 31526, 32546, 32904, 32888, 32747, 32267, 31687, 31820, 33012, 34513, 35218, 34885, 34039, 32943, 31639, 30722, 30916], [32901, 32321, 32423, 32680, 32828, 33098, 33263, 32924, 32202, 31610, 31611, 32120, 32669, 33200, 33868, 34166, 33541, 32599, 32292, 32485, 32602, 32736, 33101, 33298, 32839, 31973, 31498, 31725, 32259, 32867, 33630, 34212, 33980, 33040, 32324, 32290, 32465, 32568, 32874, 33300, 33272, 32629, 31899, 31601, 31833, 32423, 33061, 33549, 33848, 33750, 33148, 32492, 32242, 32394, 32812, 33309, 33556, 33317, 32564, 31491, 30662, 30688, 31449, 32563, 34663, 37444, 37440, 33262, 29590, 29731, 31088, 31798, 32946, 33982, 33687, 33045, 32779, 32273, 31978, 32600, 33303, 33487, 33471, 33083, 32387, 32088, 32121, 32173, 32493, 33070, 34010, 35176, 34638, 31708, 29575, 30201, 31604, 32651, 33931, 34550], [32718, 32742, 32781, 32604, 32249, 32152, 32537, 33112, 33459, 33432, 33182, 32948, 32803, 32639, 32395, 32252, 32419, 32739, 32885, 32858, 32820, 32725, 32565, 32561, 32807, 33092, 33169, 33052, 32969, 32929, 32712, 32402, 32348, 32553, 32734, 32806, 32819, 32771, 32714, 32690, 32644, 32656, 32912, 33246, 33275, 32993, 32691, 32544, 32526, 32511, 32516, 32688, 32888, 32890, 32834, 32808, 32628, 32447, 32648, 33035, 33109, 32953, 32832, 32500, 31999, 32288, 33660, 34542, 33777, 32542, 31992, 31591, 31210, 31610, 32570, 33302, 33820, 34136, 33730, 32791, 32326, 32559, 32774, 32748, 32777, 32731, 32465, 32282, 32227, 31864, 31163, 31396, 34018, 37341, 37282, 33668, 30756, 30242, 30245, 30363], [32419, 32828, 32843, 32802, 32554, 32055, 32014, 32800, 33823, 34335, 34119, 33537, 33035, 32543, 31786, 31177, 31547, 32652, 33293, 33188, 32915, 32517, 31975, 31969, 32816, 33801, 34204, 34060, 33677, 33121, 32302, 31416, 31141, 31864, 32899, 33346, 33187, 32807, 32323, 31902, 32027, 32931, 34029, 34465, 34117, 33448, 32710, 31936, 31398, 31517, 32185, 32754, 33017, 33236, 33151, 32431, 31790, 32117, 33115, 33974, 34318, 34001, 33193, 32359, 31708, 31536, 32226, 33039, 33014, 32670, 32534, 32132, 31714, 32093, 33064, 33956, 34486, 34461, 33818, 32843, 31913, 31336, 31368, 31943, 32585, 33009, 33260, 33121, 32445, 31828, 32044, 33142, 34347, 34701, 33994, 32971, 32296, 31779, 31253, 31354], [33000, 32751, 32778, 32968, 32943, 32839, 32847, 32818, 32623, 32414, 32397, 32526, 32651, 32817, 33038, 33147, 33084, 32878, 32597, 32489, 32659, 32828, 32860, 32915, 32934, 32760, 32565, 32509, 32533, 32644, 32853, 33008, 32959, 32760, 32651, 32746, 32866, 32858, 32826, 32891, 32937, 32800, 32580, 32491, 32533, 32592, 32664, 32795, 32967, 33049, 32911, 32678, 32641, 32789, 32847, 32814, 32889, 33002, 32926, 32667, 32455, 32412, 32435, 32502, 32727, 33024, 33200, 33213, 33017, 32649, 32471, 32656, 32866, 32853, 32770, 32699, 32568, 32517, 32645, 32743, 32783, 32950, 33070, 32904, 32714, 32751, 32817, 32789, 32740, 32665, 32682, 32849, 32855, 32655, 32606, 32683, 32677, 32716, 32853, 32908], [28876, 30160, 32399, 33282, 34424, 35433, 33643, 29605, 27194, 28549, 31858, 34590, 36272, 37398, 37375, 34662, 30409, 28951, 30886, 32478, 33254, 34817, 35306, 32668, 28884, 27447, 29370, 32728, 35299, 36670, 37423, 36771, 33326, 29422, 29198, 31522, 32869, 33867, 35332, 34791, 31327, 27936, 27724, 30484, 33723, 35863, 37050, 37430, 35757, 31743, 28991, 30080, 32080, 32939, 34362, 35631, 33896, 30034, 27784, 28724, 31366, 33932, 35891, 37321, 37560, 34968, 30517, 28816, 30856, 32668, 33428, 34922, 35421, 32629, 28596, 27258, 29426, 32553, 34809, 36509, 37786, 37236, 33735, 29761, 29285, 31382, 32595, 33390, 34889, 34744, 31483, 27979, 27834, 30805, 33904, 35665, 36843, 37619, 36145, 31828], [32767, 32768, 32767, 32767, 32767, 32767, 32767, 32767, 32767, 32767, 32767, 32767, 32768, 32768, 32768, 32768, 32767, 32767, 32767, 32767, 32767, 32767, 32767, 32767, 32767, 32767, 32767, 32767, 32768, 32768, 32767, 32767, 32767, 32767, 32767, 32767, 32768, 32767, 32767, 32767, 32767, 32767, 32767, 32767, 32767, 32767, 32767, 32768, 32768, 32768, 32768, 32767, 32767, 32767, 32767, 32767, 32767, 32767, 32767, 32767, 32767, 32767, 32767, 32768, 32768, 32767, 32767, 32767, 32767, 32767, 32767, 32768, 32767, 32767, 32767, 32767, 32767, 32767, 32767, 32767, 32767, 32767, 32768, 32768, 32768, 32768, 32767, 32767, 32767, 32767, 32767, 32767, 32767, 32767, 32767, 32767, 32767, 32767, 32768, 32768]], "framecount": 12.0, "time": 1489540477403}
{"dataframe": [[32722, 32563, 32666, 32726, 32680, 32720, 32779, 32745, 32703, 32640, 32569, 32670, 32865, 32938, 32996, 33081, 32939, 32647, 32592, 32723, 32677, 32574, 32741, 32922, 32775, 32614, 32709, 32790, 32774, 32828, 32815, 32706, 32766, 32917, 32925, 32875, 32819, 32714, 32723, 32851, 32778, 32464, 32321, 32509, 32690, 32752, 32981, 33260, 33212, 32978, 32846, 32784, 32681, 32473, 32288, 32436, 32811, 32945, 32816, 32794, 32881, 32826, 32749, 32840, 32880, 32759, 32742, 32853, 32841, 32736, 32666, 32570, 32552, 32781, 33000, 32909, 32691, 32632, 32697, 32739, 32773, 32879, 32977, 32906, 32748, 32734, 32775, 32672, 32613, 32758, 32869, 32803, 32701, 32629, 32570, 32610, 32783, 32940, 33007, 33074], [31929, 32771, 33072, 33019, 32609, 32029, 31835, 32337, 33434, 34581, 34910, 34264, 33414, 32688, 31764, 31047, 31356, 32275, 32801, 32952, 32953, 32408, 31568, 31558, 32762, 34262, 34961, 34676, 33957, 33173, 32262, 31319, 30996, 31742, 32838, 33241, 32960, 32487, 31899, 31426, 31756, 33067, 34512, 35138, 34835, 34029, 32970, 31789, 30909, 30941, 31892, 32819, 33054, 33002, 32860, 32269, 31684, 32055, 33215, 34195, 34583, 34493, 33925, 32890, 31676, 30942, 31341, 32448, 33045, 32917, 32696, 32374, 31786, 31607, 32471, 33876, 34813, 34885, 34273, 33283, 32226, 31323, 31003, 31719, 32808, 33110, 32801, 32578, 32207, 31676, 31866, 32998, 34140, 34613, 34558, 34115, 33224, 32143, 31311, 31060], [33872, 33291, 33229, 32801, 32455, 32893, 33288, 32924, 32210, 31585, 31282, 31553, 32273, 33124, 33945, 34333, 33865, 33039, 32635, 32532, 32438, 32597, 33006, 33186, 32795, 32015, 31471, 31528, 32032, 32937, 34195, 34945, 34174, 32394, 31278, 31436, 32134, 32950, 33860, 34324, 33831, 32717, 31690, 31206, 31485, 32308, 32899, 32918, 32951, 33091, 32782, 33053, 35052, 36012, 33273, 30254, 30513, 31714, 31710, 31978, 32734, 32895, 33162, 33993, 34363, 33943, 33041, 31904, 31441, 32063, 32742, 33035, 33505, 33773, 33076, 32054, 31666, 31796, 32136, 32688, 33211, 33537, 33680, 33371, 32725, 32469, 32670, 32826, 32976, 33193, 32969, 32010, 31056, 31360, 32876, 34006, 34166, 34185, 33959, 33116], [31505, 32975, 33796, 34169, 34176, 33671, 33144, 32944, 32810, 32659, 32577, 32445, 32279, 32174, 32103, 32268, 32776, 33207, 33363, 33458, 33326, 32790, 32312, 32238, 32388, 32648, 32937, 33040, 33007, 32969, 32835, 32669, 32640, 32723, 32848, 32932, 32825, 32565, 32381, 32307, 32313, 32631, 33178, 33401, 33285, 33285, 33218, 32679, 32102, 32084, 32311, 32228, 32351, 33449, 34501, 33942, 32469, 31704, 31709, 31975, 32469, 32973, 33204, 33234, 33174, 33153, 33294, 33261, 32740, 32220, 32141, 32137, 32084, 32397, 32918, 33160, 33216, 33273, 33216, 33081, 32918, 32623, 32401, 32510, 32701, 32731, 32642, 32408, 32327, 32835, 33379, 33476, 33670, 33024, 30252, 28502, 31183, 35545, 37778, 37593], [32347, 33323, 33556, 33307, 32848, 32175, 31711, 32050, 33087, 34078, 34420, 34019, 33236, 32512, 31875, 31390, 31604, 32455, 33022, 33068, 33005, 32719, 32147, 31976, 32647, 33617, 34116, 34013, 33620, 33100, 32370, 31557, 31337, 32108, 33021, 33218, 33064, 32861, 32291, 31727, 31938, 32835, 33742, 34152, 33977, 33597, 33268, 32625, 31689, 31446, 32148, 32726, 32785, 32883, 32839, 32156, 31504, 31919, 33224, 34338, 34637, 34324, 33725, 32816, 31718, 31152, 31581, 32370, 32787, 32900, 32816, 32389, 31940, 32068, 32871, 33868, 34457, 34391, 33865, 33142, 32274, 31356, 30944, 31556, 32612, 33103, 33109, 33128, 32959, 32497, 32271, 32597, 33223, 33728, 33839, 33640, 33317, 32685, 31789, 31438], [32854, 32828, 32854, 32819, 32741, 32772, 32885, 32862, 32666, 32539, 32632, 32732, 32627, 32562, 32811, 33087, 32998, 32750, 32735, 32819, 32769, 32739, 32804, 32834, 32834, 32777, 32623, 32563, 32665, 32696, 32662, 32805, 33044, 33038, 32729, 32465, 32552, 32821, 32982, 33073, 33093, 32886, 32581, 32472, 32572, 32641, 32551, 32512, 32746, 33033, 33005, 32753, 32718, 32975, 33126, 33009, 32847, 32706, 32510, 32382, 32456, 32585, 32621, 32683, 32903, 33161, 33197, 32955, 32701, 32645, 32690, 32710, 32763, 32886, 32898, 32683, 32451, 32436, 32613, 32821, 32944, 33006, 33022, 32922, 32745, 32563, 32440, 32591, 32993, 33208, 33064, 32813, 32588, 32395, 32354, 32514, 32773, 32995, 33055, 32965], [28684, 29791, 32058, 32918, 34183, 35647, 34279, 30284, 27566, 28467, 31408, 34041, 35964, 37413, 37515, 34867, 30579, 28810, 30655, 32522, 33263, 34664, 35578, 33375, 29209, 27200, 29073, 32446, 34842, 36314, 37451, 37097, 33760, 29619, 28926, 31192, 32870, 33955, 35426, 35174, 31848, 28117, 27462, 30028, 33257, 35462, 36873, 37604, 36217, 32162, 28924, 29720, 32131, 33240, 34258, 35470, 34249, 30397, 27648, 28460, 31198, 33697, 35698, 37205, 37511, 35352, 31105, 28808, 30506, 32621, 33275, 34442, 35366, 33266, 29265, 27395, 29098, 32255, 34793, 36459, 37573, 37220, 33802, 29426, 28908, 31510, 32822, 33460, 35235, 35342, 31989, 28307, 27647, 29929, 33027, 35349, 36800, 37567, 36367, 32414], [32767, 32767, 32767, 32767, 32767, 32767, 32768, 32767, 32767, 32767, 32767, 32767, 32767, 32767, 32767, 32767, 32767, 32768, 32768, 32768, 32768, 32767, 32767, 32767, 32767, 32767, 32767, 32767, 32767, 32767, 32767, 32767, 32767, 32768, 32768, 32767, 32767, 32767, 32767, 32767, 32767, 32768, 32767, 32767, 32767, 32767, 32767, 32767, 32767, 32767, 32767, 32767, 32768, 32768, 32768, 32768, 32767, 32767, 32767, 32767, 32767, 32767, 32767, 32767, 32767, 32767, 32767, 32767, 32768, 32768, 32767, 32767, 32767, 32767, 32767, 32767, 32768, 32767, 32767, 32767, 32767, 32767, 32767, 32767, 32767, 32767, 32767, 32768, 32768, 32768, 32768, 32767, 32767, 32767, 32767, 32767, 32767, 32767, 32767, 32767]], "framecount": 13.0, "time": 1489540477481}
{"dataframe": [[33059, 32834, 32573, 32432, 32426, 32624, 32784, 32729, 33000, 33489, 33186, 32407, 32279, 32479, 32403, 32493, 32859, 33057, 33120, 33136, 32960, 32770, 32779, 32787, 32637, 32514, 32505, 32490, 32506, 32722, 33047, 33146, 32980, 32895, 32940, 32800, 32540, 32510, 32646, 32735, 32877, 33011, 32866, 32588, 32505, 32557, 32601, 32746, 33020, 33160, 33035, 32837, 32692, 32595, 32661, 32834, 32838, 32743, 32735, 32615, 32386, 32437, 32746, 32954, 33052, 33167, 33147, 32899, 32647, 32558, 32550, 32601, 32765, 32880, 32772, 32582, 32542, 32654, 32764, 32809, 32943, 33231, 33267, 32794, 32397, 32533, 32718, 32622, 32609, 32752, 32816, 32896, 32934, 32664, 32440, 32689, 32990, 32947, 32872, 32890], [31628, 32733, 33473, 33292, 32508, 31646, 31183, 31773, 33342, 34646, 34938, 34641, 33961, 32830, 31691, 31080, 31332, 32342, 33161, 33070, 32483, 31948, 31544, 31527, 32371, 33933, 35176, 35259, 34426, 33327, 32248, 31357, 31044, 31524, 32338, 32856, 32964, 32721, 32169, 31718, 31910, 32903, 34189, 34871, 34665, 34091, 33376, 32248, 31012, 30755, 31805, 32934, 33114, 32747, 32356, 31893, 31637, 32169, 33458, 34682, 35069, 34603, 33695, 32636, 31617, 30966, 31164, 32141, 32996, 33171, 32934, 32451, 31774, 31499, 32216, 33592, 34741, 35116, 34645, 33600, 32433, 31378, 30791, 31274, 32444, 33093, 33007, 32724, 32230, 31632, 31779, 32987, 34279, 34752, 34625, 34223, 33299, 31960, 30974, 30954], [32264, 31190, 29587, 29373, 31794, 34762, 36218, 36257, 35182, 33287, 31646, 30866, 30667, 31036, 31980, 32755, 32815, 32704, 32991, 33379, 33625, 33925, 34133, 33966, 33423, 32388, 31061, 30418, 30952, 31963, 32832, 33599, 34074, 33885, 33375, 33076, 32869, 32681, 32831, 33175, 33119, 32572, 32085, 31939, 31728, 31317, 31220, 31884, 33806, 36575, 37155, 33905, 30598, 30529, 31724, 32171, 32566, 32849, 32417, 32173, 32664, 33087, 33191, 33412, 33668, 33609, 33070, 32246, 31834, 32118, 32464, 32654, 33203, 33769, 33371, 32380, 31960, 32062, 32140, 32416, 32985, 33459, 33658, 33414, 32761, 32382, 32532, 32689, 32830, 33255, 33453, 32827, 31931, 31641, 31865, 32170, 32626, 33271, 33799, 33913], [35135, 31559, 29713, 29622, 29490, 30064, 31902, 33276, 33845, 34673, 35245, 34852, 34159, 33438, 32403, 31570, 31404, 31503, 31715, 32205, 32549, 32500, 32599, 33030, 33439, 33801, 34034, 33733, 33029, 32470, 32137, 31960, 32092, 32441, 32695, 32804, 32818, 32700, 32584, 32653, 32860, 33134, 33397, 33409, 33135, 32819, 32494, 31993, 31546, 31887, 33289, 34578, 34340, 32951, 31829, 31477, 31635, 32090, 32613, 33071, 33550, 33891, 33774, 33266, 32638, 32155, 32102, 32357, 32538, 32685, 32856, 32776, 32539, 32560, 32775, 32903, 33039, 33243, 33225, 32924, 32729, 32784, 32735, 32496, 32463, 32648, 32612, 32405, 32454, 32649, 32717, 32881, 33200, 33355, 33311, 33169, 32890, 32591, 32395, 32265], [31917, 32429, 32642, 32895, 32965, 32588, 32241, 32413, 33124, 33991, 34322, 33907, 33309, 32756, 31910, 31111, 31264, 32235, 33023, 33284, 33186, 32683, 32060, 32028, 32800, 33817, 34333, 34120, 33560, 32974, 32257, 31417, 31037, 31643, 32730, 33349, 33380, 33128, 32590, 32026, 32058, 32797, 33677, 34161, 34166, 33788, 32990, 31873, 31033, 31256, 32427, 33285, 33107, 32643, 32518, 32382, 32181, 32481, 33368, 34203, 34395, 33889, 33055, 32232, 31533, 31282, 31910, 32923, 33291, 33076, 32930, 32617, 31919, 31635, 32294, 33338, 34116, 34446, 34182, 33353, 32497, 31976, 31660, 31690, 32277, 32884, 32881, 32484, 32166, 31979, 32132, 33028, 34205, 34659, 34307, 33725, 32986, 32006, 31237, 31200], [32838, 32682, 32563, 32681, 32970, 33091, 32979, 32831, 32656, 32442, 32399, 32543, 32625, 32662, 32859, 33068, 33055, 32986, 32980, 32838, 32631, 32630, 32684, 32629, 32679, 32808, 32724, 32586, 32710, 32861, 32820, 32881, 33022, 32846, 32577, 32648, 32770, 32669, 32704, 32968, 33052, 32898, 32738, 32597, 32490, 32515, 32661, 32812, 32874, 32887, 32899, 32869, 32829, 32821, 32752, 32622, 32657, 32900, 33041, 32877, 32585, 32430, 32483, 32613, 32715, 32871, 33085, 33103, 32848, 32649, 32690, 32797, 32868, 32901, 32819, 32685, 32648, 32593, 32425, 32445, 32797, 33041, 32946, 32884, 32951, 32859, 32717, 32754, 32810, 32785, 32771, 32748, 32709, 32722, 32733, 32596, 32419, 32576, 33005, 33126], [29071, 29757, 32044, 32981, 34099, 35617, 34479, 30526, 27567, 28044, 30776, 33699, 35936, 37384, 37712, 35624, 31338, 28872, 30295, 32267, 33037, 34343, 35389, 33471, 29448, 27402, 29182, 32389, 34570, 36004, 37357, 37358, 34248, 29864, 28806, 31114, 32807, 33653, 35208, 35336, 32140, 28216, 27340, 29876, 33138, 35236, 36602, 37610, 36645, 32733, 29200, 29603, 31927, 33194, 34234, 35250, 34058, 30494, 27617, 28092, 31137, 34030, 35718, 37019, 37752, 35835, 31348, 28769, 30245, 32267, 33067, 34352, 35374, 33634, 29789, 27475, 28765, 31848, 34370, 36223, 37587, 37320, 34318, 30258, 29020, 30945, 32660, 33560, 35003, 35358, 32468, 28306, 27082, 29669, 33095, 35239, 36531, 37477, 36848, 33359], [32767, 32767, 32767, 32768, 32768, 32767, 32767, 32767, 32767, 32767, 32767, 32768, 32767, 32767, 32767, 32767, 32767, 32767, 32767, 32767, 32767, 32767, 32768, 32768, 32768, 32768, 32767, 32767, 32767, 32767, 32767, 32767, 32767, 32767, 32767, 32767, 32767, 32767, 32768, 32768, 32767, 32767, 32767, 32767, 32767, 32767, 32768, 32767, 32767, 32767, 32767, 32767, 32767, 32767, 32767, 32767, 32767, 32768, 32768, 32768, 32768, 32767, 32767, 32767, 32767, 32767, 32767, 32767, 32767, 32767, 32767, 32767, 32767, 32768, 32768, 32767, 32767, 32767, 32767, 32767, 32767, 32768, 32767, 32767, 32767, 32767, 32767, 32767, 32767, 32767, 32767, 32767, 32768, 32768, 32768, 32768, 32767, 32767, 32767, 32767]], "framecount": 14.0, "time": 1489540477591}
{"dataframe": [[32823, 32784, 32774, 32631, 32596, 32761, 32789, 32737, 32802, 32708, 32437, 32474, 32874, 33159, 33085, 32896, 32864, 32851, 32725, 32699, 32737, 32565, 32426, 32634, 32880, 32879, 32794, 32692, 32552, 32616, 32954, 33204, 33189, 33070, 32822, 32429, 32242, 32463, 32821, 32959, 32808, 32628, 32627, 32708, 32777, 32897, 33027, 33026, 32917, 32786, 32613, 32544, 32685, 32707, 32574, 32772, 33131, 32991, 32572, 32504, 32688, 32811, 32862, 32748, 32561, 32727, 33112, 33124, 32821, 32653, 32678, 32758, 32771, 32671, 32619, 32650, 32582, 32557, 32825, 33088, 33011, 32860, 32873, 32816, 32670, 32715, 32806, 32696, 32641, 32730, 32710, 32724, 32859, 32745, 32512, 32612, 32871, 33032, 33149, 33062], [31814, 32838, 33280, 33062, 32547, 31945, 31519, 31863, 33137, 34465, 34953, 34660, 33956, 32937, 31789, 31028, 31202, 32153, 32888, 32885, 32642, 32431, 31997, 31675, 32262, 33652, 34774, 34973, 34454, 33557, 32466, 31427, 30925, 31380, 32410, 33116, 33164, 32717, 31979, 31453, 31735, 32876, 34299, 35126, 34891, 33982, 33010, 32102, 31266, 30991, 31677, 32683, 33097, 32966, 32634, 32042, 31531, 31949, 33340, 34608, 34912, 34438, 33680, 32878, 32014, 31157, 30999, 31978, 33073, 33223, 32777, 32276, 31745, 31583, 32336, 33668, 34652, 34863, 34509, 33758, 32607, 31390, 30898, 31557, 32595, 32970, 32776, 32530, 32139, 31634, 31651, 32672, 34228, 35162, 34958, 34204, 33404, 32337, 31073, 30587], [33493, 32808, 32356, 32329, 32596, 32973, 33229, 33120, 32566, 31827, 31444, 31782, 32568, 33215, 33654, 34023, 33847, 32973, 32314, 32318, 32441, 32600, 33063, 33338, 32911, 32213, 31851, 31843, 32139, 32744, 33303, 33588, 33737, 33569, 32930, 32321, 32068, 31920, 32066, 33242, 35025, 35180, 32735, 30191, 29919, 31073, 32230, 33383, 34337, 34435, 33897, 33356, 32816, 32340, 32415, 32886, 33104, 32859, 32185, 31432, 31375, 32031, 32648, 33159, 33842, 34185, 33745, 33062, 32681, 32462, 32326, 32476, 32840, 33106, 33006, 32460, 31799, 31564, 31941, 32672, 33370, 33850, 33998, 33576, 32798, 32330, 32343, 32559, 32877, 33183, 33151, 32642, 31983, 31659, 31836, 32304, 32804, 33349, 33989, 34193], [32314, 32593, 32780, 32723, 32693, 32794, 32853, 32842, 32873, 32985, 33091, 33085, 32991, 32839, 32565, 32324, 32402, 32662, 32745, 32702, 32765, 32836, 32752, 32683, 32775, 32860, 32886, 32980, 32959, 32784, 32920, 33241, 33017, 32463, 32308, 32337, 32206, 32290, 32454, 31955, 31557, 33281, 36327, 36833, 33969, 31275, 30564, 30450, 30480, 31379, 32741, 33695, 34098, 34091, 33834, 33504, 33029, 32450, 32188, 32369, 32586, 32575, 32471, 32424, 32452, 32574, 32786, 33048, 33292, 33351, 33159, 32884, 32556, 32133, 31997, 32433, 32950, 33130, 33264, 33423, 33163, 32542, 32235, 32474, 32729, 32717, 32730, 32751, 32547, 32393, 32547, 32824, 33109, 33360, 33367, 33114, 32804, 32506, 32311, 32369], [31876, 32696, 33077, 32990, 32728, 32406, 32153, 32371, 33238, 34195, 34524, 34113, 33262, 32338, 31619, 31243, 31480, 32357, 33096, 33193, 33077, 32862, 32333, 32041, 32494, 33266, 33864, 34074, 33680, 33025, 32702, 32370, 31710, 31600, 32343, 32774, 32533, 32572, 32915, 32706, 32318, 32832, 33864, 34154, 33658, 33213, 32928, 32328, 31530, 31337, 32105, 33059, 33366, 33140, 32744, 32243, 31892, 32141, 33003, 33928, 34328, 34066, 33382, 32595, 31913, 31485, 31610, 32375, 33145, 33307, 33004, 32518, 31949, 31692, 32243, 33386, 34243, 34368, 34113, 33654, 32715, 31570, 31116, 31655, 32441, 32767, 32808, 32866, 32699, 32256, 32158, 32876, 33912, 34370, 34105, 33557, 32874, 32048, 31387, 31322], [32853, 32698, 32802, 32879, 32879, 32882, 32813, 32729, 32767, 32751, 32475, 32238, 32435, 32856, 33081, 33133, 33110, 32908, 32675, 32656, 32666, 32564, 32651, 32937, 33013, 32877, 32775, 32617, 32441, 32510, 32684, 32757, 32879, 33043, 33060, 32940, 32758, 32637, 32683, 32714, 32676, 32816, 32962, 32765, 32525, 32564, 32641, 32645, 32769, 32975, 33033, 32948, 32914, 32844, 32595, 32518, 32817, 32982, 32767, 32604, 32640, 32614, 32587, 32755, 32926, 32906, 32842, 32807, 32731, 32713, 32810, 32873, 32861, 32882, 32919, 32825, 32617, 32460, 32395, 32454, 32709, 32973, 33033, 33018, 33011, 32877, 32688, 32645, 32711, 32734, 32731, 32820, 32886, 32714, 32514, 32594, 32750, 32784, 32862, 32937], [29497, 29279, 31637, 33044, 33802, 34990, 34581, 31148, 27580, 27792, 31159, 34066, 35539, 36903, 37788, 36002, 31593, 28655, 29724, 32037, 33279, 34513, 35462, 33780, 29849, 27559, 28985, 31960, 34290, 36024, 37262, 37084, 34351, 30274, 28910, 31063, 32985, 33655, 34775, 35066, 32502, 28884, 27630, 29482, 32527, 35041, 36648, 37470, 36741, 33339, 29457, 29213, 31718, 33191, 33884, 35033, 34584, 31291, 27959, 27820, 30514, 33530, 35626, 37037, 37651, 36115, 32086, 28978, 29750, 32008, 33040, 34045, 35287, 34156, 30320, 27562, 28593, 31635, 34122, 35929, 37380, 37423, 34675, 30434, 28857, 30825, 32793, 33695, 34918, 35191, 32596, 28776, 27316, 29299, 32537, 34987, 36646, 37778, 37093, 33405], [32767, 32767, 32767, 32767, 32767, 32767, 32767, 32767, 32768, 32768, 32767, 32767, 32767, 32767, 32767, 32767, 32768, 32767, 32767, 32767, 32767, 32767, 32767, 32767, 32767, 32767, 32767, 32768, 32768, 32768, 32768, 32767, 32767, 32767, 32767, 32767, 32767, 32767, 32767, 32767, 32767, 32767, 32767, 32768, 32768, 32767, 32767, 32767, 32767, 32767, 32767, 32768, 32767, 32767, 32767, 32767, 32767, 32767, 32767, 32767, 32767, 32767, 32768, 32768, 32768, 32768, 32767, 32767, 32767, 32767, 32767, 32767, 32767, 32767, 32767, 32767, 32767, 32767, 32768, 32768, 32767, 32767, 32767, 32767, 32767, 32767, 32768, 32767, 32767, 32767, 32767, 32767, 32767, 32767, 32767, 32767, 32767, 32768, 32768, 32768]], "framecount": 15.0, "time": 1489540477684}
{"dataframe": [[32732, 32541, 32600, 32648, 32626, 32658, 32751, 32865, 32950, 32888, 32691, 32587, 32650, 32731, 32828, 32998, 33018, 32765, 32597, 32696, 32749, 32710, 32826, 32929, 32807, 32706, 32671, 32473, 32420, 32783, 33030, 32927, 32953, 33074, 32917, 32720, 32673, 32548, 32516, 32831, 32999, 32665, 32378, 32511, 32745, 32901, 33072, 33161, 33045, 32806, 32593, 32529, 32637, 32717, 32633, 32611, 32833, 33048, 32969, 32705, 32591, 32714, 32774, 32659, 32705, 32930, 32928, 32777, 32812, 32827, 32649, 32628, 32853, 32960, 32840, 32657, 32530, 32572, 32729, 32723, 32625, 32807, 33133, 33156, 32910, 32733, 32690, 32640, 32572, 32621, 32791, 32871, 32735, 32585, 32661, 32841, 32871, 32783, 32779, 32915], [31408, 32596, 33134, 33113, 32803, 32161, 31582, 31832, 33074, 34469, 34998, 34595, 33906, 33107, 31951, 30870, 30859, 31967, 33009, 33196, 32865, 32392, 31818, 31588, 32315, 33719, 34719, 34776, 34335, 33765, 32834, 31530, 30676, 31114, 32375, 33111, 33022, 32816, 32520, 31825, 31466, 32370, 34007, 35017, 34983, 34336, 33254, 31929, 31050, 31155, 32024, 32837, 32976, 32656, 32347, 32036, 31726, 31986, 33145, 34464, 34961, 34618, 33954, 33065, 31945, 31080, 31077, 31873, 32702, 33021, 32922, 32555, 31984, 31605, 32075, 33440, 34628, 34767, 34347, 33996, 33312, 31976, 30832, 30897, 31892, 32670, 32812, 32675, 32351, 31889, 31930, 32947, 34285, 34891, 34638, 34087, 33376, 32291, 31107, 30667], [33423, 32382, 32143, 32402, 32444, 32624, 33214, 33465, 32911, 32126, 31779, 31940, 32369, 32877, 33392, 33765, 33551, 32678, 32028, 32228, 32808, 33283, 33635, 33684, 33167, 32268, 31526, 31354, 31715, 32299, 32977, 33704, 34069, 33686, 32960, 32571, 32520, 32511, 32659, 33130, 33512, 33128, 32074, 31337, 31480, 32094, 32743, 33386, 33875, 33903, 33448, 32869, 32475, 32315, 32430, 32857, 33336, 33337, 32663, 31847, 31503, 31711, 32278, 32976, 33607, 34017, 33914, 33220, 32497, 32281, 32560, 32989, 33042, 32608, 32197, 31822, 31305, 31982, 34567, 35879, 33487, 30952, 31444, 32370, 32043, 32473, 33552, 33625, 33557, 34017, 33698, 32549, 31729, 31354, 31301, 31803, 32507, 33055, 33681, 34138], [32570, 32707, 32791, 32874, 32876, 32739, 32572, 32559, 32740, 32949, 33042, 33094, 33152, 32998, 32559, 32260, 32442, 32824, 32990, 32982, 32989, 32848, 32336, 31812, 31961, 32706, 33285, 33491, 33580, 33421, 32979, 32682, 32624, 32504, 32327, 32265, 32316, 32535, 32860, 32919, 32707, 32726, 33058, 33265, 33200, 33028, 32824, 32651, 32540, 32442, 32446, 32627, 32810, 32899, 32908, 32735, 32465, 32419, 32688, 33071, 33266, 33106, 32859, 32830, 32788, 32539, 32471, 32718, 32871, 32892, 32952, 32795, 32381, 32122, 32173, 32432, 32760, 32909, 33151, 34058, 34804, 34004, 32349, 31488, 31434, 31522, 31824, 32316, 32641, 32886, 33261, 33554, 33610, 33595, 33521, 33231, 32785, 32332, 31948, 31877], [31961, 32842, 33303, 33154, 32734, 32374, 32138, 32241, 32969, 33850, 34141, 33948, 33616, 32969, 32018, 31309, 31368, 32146, 32925, 33163, 33045, 32787, 32366, 32041, 32277, 33152, 34073, 34284, 33788, 33203, 32681, 31999, 31526, 31789, 32415, 32752, 32820, 32815, 32624, 32291, 32238, 32761, 33601, 34201, 34217, 33682, 32892, 32142, 31543, 31320, 31791, 32672, 33306, 33494, 33224, 32454, 31726, 31832, 32797, 33876, 34306, 33977, 33376, 32782, 32086, 31526, 31640, 32353, 33032, 33368, 33316, 32748, 31898, 31453, 31901, 33017, 33960, 34216, 34189, 34120, 33438, 31998, 30889, 31155, 32281, 32930, 32878, 32787, 32617, 32125, 32005, 32802, 33840, 34330, 34281, 33898, 33151, 32156, 31350, 31222], [32796, 32641, 32739, 32873, 32833, 32830, 32933, 32920, 32789, 32661, 32535, 32494, 32588, 32654, 32696, 32873, 33050, 33010, 32856, 32765, 32744, 32754, 32799, 32876, 32880, 32693, 32480, 32517, 32684, 32704, 32682, 32805, 32951, 32979, 32938, 32887, 32809, 32709, 32672, 32715, 32734, 32692, 32677, 32743, 32813, 32768, 32683, 32731, 32842, 32848, 32785, 32785, 32828, 32767, 32652, 32762, 32998, 32949, 32727, 32668, 32646, 32581, 32645, 32725, 32703, 32761, 32891, 32909, 32834, 32762, 32763, 32869, 32932, 32858, 32785, 32767, 32681, 32527, 32479, 32603, 32778, 32902, 32908, 32793, 32736, 32775, 32754, 32794, 33001, 33062, 32893, 32797, 32752, 32558, 32389, 32424, 32539, 32673, 32877, 33040], [29355, 29064, 31454, 32945, 33936, 35290, 34733, 31319, 28000, 27938, 30681, 33445, 35190, 36720, 37684, 36230, 32220, 29189, 29792, 31760, 32852, 34189, 35587, 34369, 30371, 27463, 28499, 31624, 33947, 35501, 37086, 37576, 35151, 30866, 29004, 30794, 32618, 33155, 34325, 35310, 33309, 29181, 27257, 29298, 32579, 34813, 36406, 37570, 36906, 33434, 29638, 29354, 31583, 32829, 33577, 35004, 34870, 31779, 28340, 27832, 30296, 33278, 35310, 36771, 37673, 36308, 32130, 28896, 29759, 32049, 33047, 34159, 35488, 34379, 30564, 27544, 28232, 31413, 34079, 35547, 36869, 37567, 35473, 31078, 28895, 30538, 32392, 33139, 34576, 35566, 33437, 29258, 27142, 28966, 32338, 34709, 36312, 37681, 37352, 33847], [32768, 32767, 32767, 32767, 32767, 32767, 32767, 32767, 32767, 32767, 32767, 32767, 32767, 32768, 32768, 32767, 32767, 32767, 32767, 32767, 32767, 32768, 32767, 32767, 32767, 32767, 32767, 32767, 32767, 32767, 32767, 32767, 32768, 32768, 32768, 32768, 32767, 32767, 32767, 32767, 32767, 32767, 32767, 32767, 32767, 32767, 32767, 32767, 32768, 32768, 32767, 32767, 32767, 32767, 32767, 32767, 32768, 32767, 32767, 32767, 32767, 32767, 32767, 32767, 32767, 32767, 32767, 32768, 32768, 32768, 32768, 32767, 32767, 32767, 32767, 32767, 32767, 32767, 32767, 32767, 32767, 32767, 32767, 32768, 32768, 32767, 32767, 32767, 32767, 32767, 32767, 32768, 32767, 32767, 32767, 32767, 32767, 32767, 32767, 32767]], "framecount": 16.0, "time": 1489540477809}
{"dataframe": [[33028, 32912, 32647, 32558, 32696, 32753, 32646, 32691, 32958, 33005, 32673, 32422, 32494, 32661, 32834, 33032, 33119, 33061, 32908, 32672, 32563, 32726, 32836, 32670, 32541, 32628, 32664, 32571, 32616, 32839, 32993, 33039, 33107, 33097, 32882, 32619, 32470, 32460, 32603, 32794, 32872, 32856, 32794, 32677, 32568, 32529, 32651, 32985, 33235, 33095, 32833, 32802, 32791, 32555, 32385, 32522, 32774, 32950, 32949, 32743, 32578, 32610, 32650, 32710, 32972, 33231, 33147, 32806, 32559, 32569, 32672, 32664, 32625, 32717, 32872, 32925, 32788, 32538, 32449, 32674, 32983, 33082, 32968, 32869, 32910, 32889, 32654, 32489, 32591, 32698, 32708, 32806, 32850, 32632, 32486, 32696, 32950, 32980, 32980, 33086], [31467, 32747, 33247, 32920, 32595, 32310, 31778, 31780, 32977, 34355, 34826, 34677, 34196, 33155, 31858, 30965, 30922, 31768, 32785, 33192, 33011, 32518, 31901, 31641, 32240, 33518, 34599, 34817, 34391, 33762, 32838, 31615, 30846, 31218, 32284, 33011, 33058, 32739, 32257, 31773, 31739, 32539, 33871, 34901, 35065, 34397, 33272, 32093, 31118, 30767, 31495, 32742, 33364, 33242, 32824, 32087, 31373, 31640, 32987, 34307, 34795, 34627, 34076, 33156, 32024, 31096, 31021, 31998, 33059, 33237, 32791, 32263, 31748, 31573, 32192, 33381, 34437, 34906, 34703, 33937, 32850, 31705, 30951, 31136, 32042, 32779, 33030, 32986, 32584, 31889, 31531, 32151, 33618, 34932, 35193, 34494, 33474, 32415, 31295, 30641], [33768, 32954, 32575, 32550, 32547, 32811, 33247, 33194, 32506, 31756, 31510, 31874, 32484, 32985, 33467, 33905, 33778, 33066, 32541, 32465, 32517, 32756, 33166, 33261, 32899, 32309, 31725, 31586, 32019, 32536, 33009, 33676, 34110, 33734, 32944, 32467, 32370, 32463, 32755, 33160, 33346, 32936, 32017, 31351, 31517, 32246, 32964, 33460, 33827, 33973, 33570, 32746, 32193, 32243, 32607, 32968, 33192, 33108, 32591, 31950, 31695, 31874, 32289, 32918, 33622, 34047, 33904, 33170, 32342, 32093, 32402, 32771, 33064, 33289, 33140, 32491, 31795, 31599, 31975, 32572, 33127, 33626, 33864, 33549, 32945, 32546, 32416, 32462, 32702, 33051, 33274, 33022, 32275, 31689, 31754, 32172, 32607, 33140, 33731, 33953], [32194, 32491, 32624, 32841, 32996, 32892, 32810, 32895, 33046, 33260, 33319, 32979, 32607, 32592, 32609, 32412, 32362, 32557, 32704, 32848, 32978, 32802, 32551, 32604, 32739, 32868, 33186, 33345, 33050, 32763, 32720, 32520, 32206, 32327, 32818, 33077, 32992, 32827, 32575, 32301, 32351, 32749, 33156, 33376, 33319, 32986, 32735, 32750, 32660, 32396, 32381, 32600, 32713, 32708, 32685, 32658, 32665, 32745, 32949, 33194, 33207, 33002, 32905, 32882, 32642, 32350, 32382, 32635, 32767, 32740, 32705, 32704, 32692, 32661, 32725, 32994, 33262, 33190, 32889, 32742, 32683, 32493, 32415, 32617, 32795, 32823, 32846, 32794, 32630, 32560, 32620, 32733, 32971, 33185, 33084, 32847, 32775, 32748, 32638, 32578], [31870, 32731, 33129, 33050, 32765, 32305, 31943, 32232, 33176, 34107, 34414, 34048, 33384, 32720, 32018, 31348, 31284, 32111, 33021, 33211, 33009, 32866, 32521, 32009, 32076, 32976, 33982, 34377, 34104, 33452, 32624, 31731, 31165, 31517, 32583, 33292, 33219, 32901, 32511, 31918, 31732, 32554, 33751, 34314, 34191, 33838, 33307, 32505, 31664, 31277, 31688, 32497, 32916, 32887, 32790, 32565, 32203, 32215, 32963, 33996, 34422, 34057, 33505, 32918, 31998, 31132, 31145, 32099, 33127, 33453, 33136, 32657, 32225, 31947, 32240, 33232, 34160, 34272, 33825, 33370, 32738, 31736, 31102, 31556, 32580, 33177, 33170, 32942, 32613, 32181, 32006, 32523, 33515, 34208, 34168, 33681, 33094, 32349, 31546, 31287], [33048, 32951, 32798, 32665, 32731, 32942, 33001, 32896, 32782, 32583, 32361, 32382, 32574, 32695, 32799, 33000, 33166, 33104, 32850, 32600, 32525, 32703, 32895, 32831, 32750, 32865, 32857, 32638, 32554, 32610, 32591, 32639, 32863, 33014, 32943, 32791, 32728, 32832, 32972, 32916, 32709, 32623, 32708, 32737, 32633, 32582, 32621, 32623, 32699, 32940, 33044, 32916, 32889, 32945, 32803, 32658, 32755, 32847, 32739, 32601, 32539, 32509, 32592, 32788, 32899, 32914, 32981, 32999, 32845, 32669, 32611, 32679, 32854, 32964, 32836, 32657, 32670, 32725, 32614, 32520, 32656, 32874, 32957, 32906, 32820, 32776, 32775, 32769, 32785, 32852, 32902, 32880, 32768, 32613, 32527, 32514, 32540, 32683, 32893, 32981], [29595, 28995, 31324, 32715, 33532, 35179, 35240, 32063, 28339, 27531, 29900, 33121, 35445, 36866, 37569, 36345, 32480, 29140, 29654, 31847, 32885, 34068, 35512, 34377, 30625, 27824, 28258, 30991, 33957, 35946, 37047, 37366, 35438, 31218, 28813, 30258, 32227, 33234, 34825, 35705, 33390, 29324, 27430, 29004, 31884, 34313, 36326, 37766, 37449, 34160, 29729, 28678, 31161, 33027, 33758, 35071, 35175, 32052, 28140, 27385, 30023, 33216, 35364, 36790, 37559, 36426, 32600, 29067, 29534, 31996, 33023, 33948, 35584, 34801, 30749, 27385, 27854, 30903, 33839, 35780, 37149, 37709, 35770, 31359, 28794, 30328, 32334, 32994, 34302, 35406, 33505, 29518, 27439, 29155, 32428, 34635, 35928, 37231, 37364, 34311], [32767, 32767, 32768, 32768, 32768, 32768, 32767, 32767, 32767, 32767, 32767, 32767, 32767, 32767, 32767, 32767, 32767, 32767, 32768, 32768, 32767, 32767, 32767, 32767, 32767, 32767, 32768, 32767, 32767, 32767, 32767, 32767, 32767, 32767, 32767, 32767, 32767, 32768, 32768, 32768, 32768, 32767, 32767, 32767, 32767, 32767, 32767, 32767, 32767, 32767, 32767, 32767, 32767, 32768, 32768, 32767, 32767, 32767, 32767, 32767, 32767, 32768, 32767, 32767, 32767, 32767, 32767, 32767, 32767, 32767, 32767, 32767, 32768, 32768, 32768, 32768, 32767, 32767, 32767, 32767, 32767, 32767, 32767, 32767, 32767, 32767, 32767, 32767, 32768, 32768, 32767, 32767, 32767, 32767, 32767, 32767, 32768, 32767, 32767, 32767]], "framecount": 17.0, "time": 1489540477887}
{"dataframe": [[33038, 32705, 32481, 32556, 32574, 32487, 32662, 33024, 33083, 32785, 32595, 32662, 32700, 32707, 32867, 33028, 32998, 32854, 32720, 32664, 32710, 32709, 32587, 32619, 32845, 32822, 32546, 32559, 32914, 33112, 32938, 32699, 32729, 32910, 32944, 32823, 32649, 32465, 32426, 32711, 33129, 33150, 32695, 32392, 32539, 32685, 32668, 32853, 33149, 33151, 32959, 32816, 32654, 32490, 32497, 32615, 32691, 32803, 32983, 32960, 32671, 32525, 32698, 32834, 32825, 32926, 33022, 32891, 32746, 32693, 32547, 32483, 32749, 32968, 32835, 32712, 32796, 32763, 32579, 32578, 32804, 33042, 33102, 32832, 32528, 32690, 32971, 32792, 32570, 32736, 32847, 32712, 32683, 32682, 32564, 32647, 32891, 32898, 32847, 32986], [31243, 32573, 33222, 33020, 32683, 32283, 31769, 31767, 32808, 34284, 35003, 34695, 33926, 32997, 32005, 31257, 31126, 31779, 32736, 33191, 32997, 32516, 31944, 31539, 31870, 33157, 34638, 35191, 34589, 33649, 32957, 32117, 31070, 30919, 31892, 32650, 32729, 32782, 32655, 32098, 31959, 32799, 33936, 34514, 34442, 34065, 33438, 32414, 31303, 30895, 31580, 32684, 33281, 33254, 32814, 32065, 31497, 31718, 32759, 34031, 34734, 34589, 34037, 33370, 32413, 31340, 30967, 31717, 32797, 33178, 32873, 32414, 31924, 31555, 31937, 33257, 34549, 34914, 34610, 34029, 32983, 31659, 30863, 31145, 32199, 33032, 33033, 32639, 32343, 31991, 31680, 32220, 33704, 34818, 34784, 34287, 33689, 32636, 31477, 31033], [33535, 32832, 32374, 32285, 32482, 32908, 33321, 33312, 32706, 31910, 31555, 31763, 32268, 32944, 33632, 33968, 33736, 33098, 32494, 32325, 32514, 32696, 32921, 33312, 33301, 32477, 31569, 31460, 32087, 32831, 33257, 33494, 33774, 33643, 32812, 32175, 32372, 32704, 32763, 33049, 33379, 33028, 32315, 31986, 31925, 31945, 32408, 33240, 33817, 33845, 33326, 32437, 31848, 32060, 32769, 33480, 33912, 33782, 33000, 31942, 31245, 31333, 31997, 32686, 33251, 33781, 33897, 33344, 32718, 32513, 32532, 32731, 33158, 33390, 33101, 32432, 31725, 31449, 31800, 32408, 32982, 33590, 34022, 33803, 33085, 32543, 32408, 32467, 32674, 33035, 33285, 33040, 32285, 31588, 31526, 32045, 32735, 33394, 33898, 33918], [32653, 32774, 32766, 32655, 32654, 32679, 32531, 32486, 32831, 33221, 33281, 33147, 32953, 32669, 32461, 32470, 32602, 32795, 32946, 32853, 32645, 32600, 32578, 32441, 32480, 32818, 33097, 33101, 33079, 33243, 33285, 32854, 32279, 32162, 32442, 32645, 32705, 32755, 32732, 32689, 32765, 32862, 32872, 32934, 33091, 33137, 33021, 32850, 32555, 32228, 32281, 32710, 33014, 33008, 32807, 32454, 32220, 32469, 33019, 33386, 33389, 33141, 32863, 32693, 32531, 32324, 32282, 32490, 32801, 33062, 33105, 32899, 32650, 32487, 32471, 32704, 32995, 33064, 33062, 33125, 32971, 32543, 32290, 32476, 32834, 32988, 32866, 32628, 32466, 32465, 32559, 32716, 32957, 33144, 33147, 33062, 32951, 32818, 32787, 32788], [31910, 32864, 33338, 33204, 32819, 32319, 31841, 31932, 32818, 33810, 34224, 34172, 33857, 33091, 31990, 31225, 31365, 32239, 32994, 33175, 33117, 32853, 32168, 31664, 32101, 33184, 34013, 34203, 34019, 33666, 32965, 31915, 31166, 31434, 32436, 33116, 33092, 32851, 32596, 32226, 32022, 32364, 33207, 34096, 34445, 34043, 33291, 32531, 31713, 31183, 31612, 32634, 33161, 33089, 32887, 32383, 31685, 31825, 33107, 34336, 34545, 34079, 33523, 32853, 31932, 31141, 31192, 32137, 33067, 33330, 33147, 32809, 32347, 32002, 32205, 33009, 33884, 34255, 34042, 33455, 32690, 31933, 31382, 31408, 32199, 33105, 33371, 33116, 32722, 32272, 32001, 32278, 33025, 33750, 34061, 33908, 33445, 32795, 32069, 31645], [32937, 32869, 32824, 32832, 32847, 32777, 32716, 32792, 32844, 32673, 32474, 32571, 32830, 32858, 32685, 32653, 32770, 32838, 32886, 32956, 32910, 32807, 32833, 32877, 32798, 32680, 32538, 32448, 32586, 32743, 32692, 32759, 33042, 33082, 32878, 32773, 32684, 32613, 32777, 32934, 32838, 32758, 32785, 32693, 32588, 32634, 32655, 32661, 32824, 32931, 32812, 32723, 32794, 32871, 32884, 32879, 32915, 32937, 32776, 32513, 32451, 32577, 32637, 32630, 32706, 32878, 33040, 33057, 32867, 32651, 32691, 32932, 33008, 32812, 32617, 32598, 32615, 32568, 32600, 32731, 32794, 32852, 33006, 32982, 32693, 32589, 32822, 32942, 32777, 32691, 32849, 32975, 32865, 32642, 32482, 32449, 32591, 32794, 32830, 32769], [29852, 28750, 31076, 32814, 33644, 35062, 35216, 32362, 28608, 27432, 29631, 32928, 35295, 36774, 37626, 36600, 32858, 29288, 29371, 31499, 32780, 34012, 35508, 34798, 31189, 27794, 27824, 30762, 33770, 35648, 37027, 37680, 35813, 31507, 28803, 29993, 32098, 33128, 34413, 35456, 33873, 30042, 27556, 28729, 31888, 34401, 35922, 37164, 37337, 34593, 30212, 28795, 30949, 32746, 33514, 34960, 35484, 32842, 28758, 27137, 29237, 32672, 35148, 36633, 37536, 36777, 33259, 29475, 29293, 31643, 33103, 33995, 35223, 34656, 31168, 27715, 27755, 30788, 33761, 35466, 36818, 37682, 36001, 31685, 28970, 30266, 32240, 32912, 34223, 35560, 33933, 29916, 27400, 28516, 31692, 34467, 36137, 37192, 37301, 34833], [32767, 32767, 32767, 32767, 32767, 32767, 32767, 32768, 32768, 32768, 32768, 32767, 32767, 32767, 32767, 32767, 32767, 32767, 32767, 32767, 32767, 32767, 32767, 32768, 32768, 32767, 32767, 32767, 32767, 32767, 32767, 32768, 32767, 32767, 32767, 32767, 32767, 32767, 32767, 32767, 32767, 32767, 32768, 32768, 32768, 32768, 32767, 32767, 32767, 32767, 32767, 32767, 32767, 32767, 32767, 32767, 32767, 32767, 32768, 32768, 32767, 32767, 32767, 32767, 32767, 32767, 32768, 32767, 32767, 32767, 32767, 32767, 32767, 32767, 32767, 32767, 32767, 32768, 32768, 32768, 32768, 32767, 32767, 32767, 32767, 32767, 32767, 32767, 32767, 32767, 32767, 32767, 32767, 32768, 32768, 32767, 32767, 32767, 32767, 32767]], "framecount": 18.0, "time": 1489540477981}
{"dataframe": [[32984, 32792, 32787, 32844, 32686, 32552, 32604, 32662, 32714, 32787, 32711, 32534, 32599, 32938, 33168, 33115, 32956, 32802, 32695, 32676, 32603, 32445, 32541, 32929, 33072, 32809, 32579, 32521, 32545, 32807, 33102, 32977, 32778, 32930, 32945, 32666, 32641, 32734, 32613, 32692, 32975, 32862, 32520, 32496, 32636, 32671, 32750, 32911, 33028, 33110, 33058, 32787, 32630, 32748, 32730, 32530, 32594, 32786, 32709, 32585, 32636, 32671, 32735, 32994, 33178, 33070, 32897, 32788, 32688, 32656, 32608, 32479, 32529, 32785, 32937, 32897, 32757, 32659, 32733, 32785, 32704, 32827, 33127, 33075, 32720, 32591, 32684, 32662, 32522, 32543, 32859, 33107, 32934, 32677, 32647, 32594, 32547, 32782, 33027, 33003], [31472, 32293, 32868, 32937, 32670, 32209, 31697, 31745, 32845, 34307, 34995, 34778, 34147, 33247, 32107, 31079, 30766, 31488, 32610, 33220, 33255, 32904, 32123, 31459, 31773, 33015, 34348, 35080, 34916, 33971, 32796, 31794, 31033, 30921, 31730, 32704, 33175, 33287, 32862, 31838, 31402, 32332, 33685, 34509, 34742, 34341, 33471, 32652, 31844, 31035, 31138, 32318, 33169, 33015, 32607, 32231, 31731, 31717, 32759, 34179, 34885, 34714, 34109, 33273, 32269, 31306, 30916, 31591, 32709, 33126, 32888, 32552, 32014, 31530, 31966, 33294, 34491, 34873, 34580, 33988, 33144, 31959, 30960, 31004, 31919, 32677, 32900, 32864, 32592, 32077, 31791, 32277, 33425, 34490, 34879, 34605, 33850, 32671, 31438, 30865], [33340, 32689, 32464, 32484, 32564, 32881, 33225, 33108, 32575, 32030, 31711, 31783, 32300, 32941, 33447, 33873, 33915, 33246, 32541, 32430, 32455, 32440, 32820, 33274, 33176, 32676, 32120, 31642, 31579, 32158, 33011, 33709, 34111, 33962, 33242, 32575, 32300, 32189, 32366, 32956, 33331, 33006, 32344, 31851, 31742, 32095, 32726, 33286, 33699, 33890, 33521, 32799, 32422, 32379, 32347, 32615, 33209, 33417, 32907, 32149, 31726, 31817, 32179, 32599, 33193, 33888, 34051, 33380, 32626, 32444, 32514, 32548, 32789, 33171, 33167, 32586, 31905, 31673, 31901, 32345, 32945, 33609, 33990, 33775, 33131, 32589, 32382, 32376, 32546, 32932, 33262, 33100, 32412, 31756, 31654, 32035, 32568, 33157, 33785, 34085], [32587, 32382, 32494, 32681, 32633, 32496, 32454, 32543, 32886, 33356, 33491, 33271, 33073, 32870, 32525, 32271, 32261, 32439, 32751, 32921, 32722, 32519, 32676, 32901, 32901, 32894, 33034, 33126, 33055, 32910, 32712, 32439, 32292, 32453, 32695, 32797, 32942, 33122, 32959, 32522, 32333, 32485, 32714, 32979, 33207, 33178, 33016, 32925, 32746, 32479, 32439, 32573, 32634, 32719, 32828, 32721, 32513, 32506, 32702, 32979, 33247, 33346, 33175, 32848, 32574, 32441, 32450, 32608, 32768, 32731, 32591, 32558, 32622, 32740, 32910, 32988, 32963, 33052, 33123, 32903, 32647, 32592, 32544, 32564, 32803, 32880, 32652, 32567, 32653, 32588, 32570, 32829, 33045, 33043, 33069, 33125, 32982, 32698, 32455, 32355], [31908, 32566, 32949, 32891, 32612, 32203, 31799, 31827, 32666, 33947, 34666, 34438, 33825, 33156, 32249, 31358, 31221, 31954, 32717, 32887, 32773, 32749, 32650, 32368, 32327, 32932, 33821, 34243, 33991, 33395, 32738, 32046, 31458, 31480, 32204, 32927, 33248, 33261, 32804, 32009, 31669, 32224, 33299, 34163, 34375, 34078, 33479, 32567, 31637, 31264, 31663, 32438, 32967, 33047, 32897, 32611, 32213, 32067, 32600, 33625, 34362, 34322, 33748, 33019, 32164, 31326, 31148, 31950, 32986, 33377, 33121, 32593, 32079, 31916, 32350, 33296, 34202, 34366, 33798, 33162, 32690, 32077, 31462, 31525, 32318, 32963, 33038, 32953, 32744, 32238, 31941, 32354, 33215, 34004, 34417, 34300, 33627, 32571, 31490, 30903], [32810, 32914, 32986, 32968, 32809, 32720, 32895, 32993, 32714, 32408, 32398, 32513, 32647, 32873, 32998, 32866, 32748, 32827, 32897, 32858, 32808, 32781, 32825, 32901, 32808, 32591, 32503, 32546, 32657, 32825, 32838, 32716, 32816, 33027, 32945, 32713, 32643, 32673, 32716, 32801, 32894, 33000, 33023, 32777, 32491, 32482, 32525, 32509, 32705, 32930, 32884, 32861, 33007, 32988, 32829, 32804, 32815, 32762, 32746, 32678, 32527, 32507, 32580, 32597, 32744, 33015, 33050, 32911, 32877, 32797, 32684, 32797, 32906, 32786, 32711, 32720, 32658, 32671, 32690, 32503, 32459, 32808, 33094, 33063, 32962, 32865, 32744, 32703, 32682, 32647, 32772, 32932, 32853, 32694, 32616, 32512, 32522, 32775, 32958, 32928], [30525, 28800, 30747, 32576, 33448, 34972, 35420, 32711, 28793, 27314, 29340, 32699, 35173, 36597, 37445, 36843, 33486, 29487, 29025, 31377, 32823, 33741, 35377, 35219, 31672, 27872, 27594, 30461, 33527, 35489, 36875, 37664, 36222, 31987, 28740, 29689, 31997, 32963, 34216, 35659, 34350, 30371, 27592, 28518, 31571, 34133, 35724, 36987, 37361, 35042, 30655, 28664, 30632, 32769, 33570, 34836, 35518, 33129, 29086, 27353, 29105, 32109, 34541, 36316, 37541, 37233, 34008, 29859, 29214, 31473, 32654, 33289, 35053, 35249, 31904, 28109, 27612, 30200, 33261, 35393, 36860, 37697, 36378, 32237, 28938, 29804, 32094, 32937, 33990, 35417, 34267, 30433, 27625, 28312, 31251, 34140, 36112, 37291, 37395, 35086], [32767, 32768, 32767, 32767, 32767, 32767, 32767, 32767, 32767, 32767, 32767, 32767, 32768, 32768, 32768, 32768, 32767, 32767, 32767, 32767, 32767, 32767, 32767, 32767, 32767, 32767, 32767, 32767, 32768, 32768, 32767, 32767, 32767, 32767, 32767, 32767, 32768, 32767, 32767, 32767, 32767, 32767, 32767, 32767, 32767, 32767, 32767, 32768, 32768, 32768, 32768, 32767, 32767, 32767, 32767, 32767, 32767, 32767, 32767, 32767, 32767, 32767, 32767, 32768, 32768, 32767, 32767, 32767, 32767, 32767, 32767, 32768, 32767, 32767, 32767, 32767, 32767, 32767, 32767, 32767, 32767, 32767, 32768, 32768, 32768, 32768, 32767, 32767, 32767, 32767, 32767, 32767, 32767, 32767, 32767, 32767, 32767, 32767, 32768, 32768]], "framecount": 19.0, "time": 1489540478075}
{"dataframe": [[32962, 32934, 32691, 32477, 32585, 32756, 32776, 32815, 32857, 32752, 32633, 32608, 32596, 32697, 33018, 33223, 33017, 32762, 32755, 32665, 32435, 32479, 32764, 32964, 33024, 32876, 32541, 32413, 32618, 32805, 32865, 32970, 33036, 32929, 32782, 32710, 32696, 32756, 32856, 32806, 32609, 32537, 32602, 32604, 32645, 32795, 32872, 32943, 33107, 33069, 32813, 32758, 32821, 32586, 32326, 32510, 32831, 32914, 32945, 32928, 32686, 32488, 32580, 32726, 32772, 32922, 33180, 33170, 32814, 32546, 32589, 32708, 32721, 32702, 32701, 32638, 32556, 32627, 32821, 32942, 32926, 32879, 32928, 33005, 32921, 32742, 32665, 32579, 32412, 32466, 32777, 32962, 32939, 32862, 32734, 32635, 32701, 32856, 32908, 32842], [31272, 32200, 32893, 33024, 32795, 32375, 31868, 31797, 32658, 33953, 34665, 34616, 34280, 33632, 32463, 31249, 30814, 31473, 32558, 33059, 32923, 32681, 32250, 31632, 31706, 32928, 34385, 35043, 34831, 34099, 33075, 31931, 30986, 30886, 31843, 32845, 33022, 32766, 32499, 32151, 31950, 32313, 33287, 34382, 34802, 34349, 33652, 32920, 31800, 30844, 31139, 32337, 33108, 33088, 32757, 32339, 31857, 31637, 32239, 33673, 34925, 35060, 34354, 33469, 32395, 31232, 30871, 31671, 32646, 32934, 32738, 32443, 32149, 31948, 32078, 32924, 34307, 35100, 34658, 33720, 32960, 32090, 31102, 30898, 31850, 32967, 33273, 32911, 32390, 31906, 31669, 32083, 33263, 34541, 35010, 34610, 33860, 32898, 31724, 30883], [33628, 32778, 32376, 32433, 32458, 32573, 32992, 33280, 32945, 32180, 31710, 31920, 32412, 32743, 33120, 33734, 33978, 33369, 32582, 32373, 32465, 32520, 32799, 33228, 33201, 32589, 31969, 31792, 31984, 32389, 32986, 33616, 33908, 33585, 32880, 32457, 32495, 32543, 32552, 32876, 33270, 33132, 32496, 31921, 31811, 32169, 32642, 32983, 33399, 33819, 33563, 32719, 32372, 32649, 32712, 32670, 33099, 33443, 32964, 32112, 31619, 31600, 32014, 32717, 33339, 33775, 33991, 33640, 32849, 32364, 32373, 32507, 32718, 33051, 33154, 32734, 32043, 31638, 31814, 32388, 33012, 33560, 33932, 33789, 33110, 32503, 32350, 32428, 32605, 32976, 33322, 33168, 32434, 31689, 31531, 31905, 32498, 33233, 33912, 34110], [32534, 32891, 32979, 32731, 32561, 32602, 32648, 32632, 32691, 32917, 33150, 33168, 33041, 32927, 32756, 32504, 32420, 32587, 32750, 32778, 32748, 32671, 32605, 32629, 32666, 32767, 33046, 33236, 33083, 32862, 32816, 32741, 32542, 32464, 32582, 32719, 32807, 32812, 32710, 32678, 32758, 32730, 32694, 32888, 33041, 32924, 32857, 32946, 32838, 32550, 32495, 32699, 32830, 32795, 32742, 32688, 32569, 32455, 32505, 32821, 33235, 33334, 33065, 32848, 32782, 32623, 32514, 32663, 32781, 32666, 32564, 32586, 32586, 32599, 32715, 32865, 33026, 33181, 33213, 33136, 32923, 32492, 32213, 32414, 32697, 32774, 32890, 32930, 32617, 32282, 32331, 32794, 33435, 33641, 33156, 32659, 32558, 32553, 32581, 32637], [31296, 32426, 33266, 33296, 32954, 32575, 32171, 32091, 32721, 33714, 34294, 34146, 33573, 32956, 32280, 31500, 31216, 31895, 32802, 33124, 33086, 32959, 32589, 32176, 32190, 32757, 33606, 34221, 34140, 33489, 32800, 32124, 31421, 31415, 32314, 33044, 33119, 33025, 32742, 32223, 32054, 32442, 33071, 33712, 34075, 33929, 33471, 32843, 31971, 31333, 31632, 32496, 32995, 33061, 32977, 32589, 32076, 32035, 32565, 33361, 34100, 34324, 33856, 33120, 32404, 31663, 31312, 31814, 32651, 33136, 33257, 33007, 32350, 31787, 31941, 32836, 33829, 34281, 34205, 33830, 33060, 31977, 31176, 31233, 32110, 33090, 33461, 33192, 32614, 31938, 31570, 32155, 33599, 34656, 34446, 33614, 33051, 32621, 31966, 31430], [32895, 32845, 32736, 32736, 32794, 32775, 32817, 32930, 32877, 32657, 32526, 32567, 32629, 32668, 32777, 32922, 33015, 32967, 32716, 32530, 32692, 32886, 32828, 32826, 32956, 32900, 32720, 32635, 32567, 32515, 32602, 32744, 32831, 32901, 32924, 32867, 32802, 32775, 32778, 32786, 32808, 32888, 32910, 32725, 32489, 32456, 32598, 32747, 32853, 32920, 32913, 32806, 32691, 32726, 32873, 32918, 32857, 32883, 32924, 32737, 32479, 32464, 32566, 32589, 32691, 32915, 33006, 32928, 32898, 32893, 32754, 32658, 32788, 32888, 32773, 32668, 32655, 32626, 32677, 32825, 32816, 32706, 32779, 32850, 32708, 32672, 32844, 32896, 32854, 32920, 32933, 32809, 32705, 32621, 32501, 32449, 32533, 32711, 32915, 33026], [30834, 28864, 30673, 32393, 32912, 34434, 35512, 33346, 29444, 27685, 29404, 32462, 34627, 35935, 37052, 36920, 33898, 29903, 29212, 31406, 32826, 33704, 35321, 35272, 31922, 28131, 27505, 30000, 33007, 35113, 36684, 37693, 36636, 32756, 29211, 29514, 31782, 32960, 34007, 35393, 34467, 30646, 27621, 28285, 31230, 33947, 35853, 37095, 37295, 35378, 31395, 28820, 30083, 32340, 33262, 34366, 35504, 33869, 29716, 27310, 28917, 32157, 34530, 36107, 37292, 37100, 34160, 30006, 28869, 31108, 32983, 33776, 34948, 35092, 32359, 28630, 27567, 29851, 32922, 34993, 36443, 37513, 36709, 32956, 29249, 29429, 31828, 33046, 33899, 35275, 34705, 31091, 27680, 27857, 30847, 33806, 35753, 37141, 37591, 35632], [32767, 32767, 32767, 32767, 32767, 32767, 32768, 32767, 32767, 32767, 32767, 32767, 32767, 32767, 32767, 32767, 32767, 32768, 32768, 32768, 32768, 32767, 32767, 32767, 32767, 32767, 32767, 32767, 32767, 32767, 32767, 32767, 32767, 32768, 32768, 32767, 32767, 32767, 32767, 32767, 32767, 32768, 32767, 32767, 32767, 32767, 32767, 32767, 32767, 32767, 32767, 32767, 32768, 32768, 32768, 32768, 32767, 32767, 32767, 32767, 32767, 32767, 32767, 32767, 32767, 32767, 32767, 32767, 32768, 32768, 32767, 32767, 32767, 32767, 32767, 32767, 32768, 32767, 32767, 32767, 32767, 32767, 32767, 32767, 32767, 32767, 32767, 32768, 32768, 32768, 32768, 32767, 32767, 32767, 32767, 32767, 32767, 32767, 32767, 32767]], "framecount": 20.0, "time": 1489540478184}
