{"dataframe": [[32768, 32768, 32768, 32768, 32768, 32768, 32768, 32768, 32768, 32768, 32768, 32768, 32768, 32768, 32768, 32768, 32768, 32768, 32768, 32768, 32768, 32768, 32768, 32768, 32768, 32768, 32768, 32768, 32768, 32768, 32768, 32768, 32768, 32768, 32768, 32768, 32768, 32768, 32768, 32768, 32768, 32768, 32768, 32768, 32768, 32768, 42290, 43199, 39181, 34434, 29535, 27218, 28913, 30970, 31816, 33187, 34385, 33988, 33170, 32835, 32429, 32354, 33224, 34020, 33852, 33390, 33300, 33145, 32302, 31243, 31190, 32127, 32561, 31992, 31848, 32765, 33102, 32199, 32251, 34748, 37902, 38732, 35966, 31036, 29056, 33446, 33997, 22277, 15740, 26795, 37302, 38298, 41509, 44729, 39871, 34930, 34597, 31892, 27080, 25432], [32768, 32768, 32768, 32768, 32768, 32768, 32768, 32768, 32768, 32768, 32768, 32768, 32768, 32768, 32768, 32768, 32768, 32768, 32768, 32768, 32768, 32768, 32768, 32768, 32768, 32768, 32768, 32768, 32768, 32768, 32768, 32768, 32768, 32768, 32768, 32768, 32768, 32768, 32768, 32768, 32768, 32768, 32768, 32768, 32768, 32768, 37165, 39787, 39394, 37083, 33831, 29926, 26759, 26788, 29825, 32192, 32101, 31690, 31964, 31522, 31091, 33191, 37215, 39963, 40147, 38328, 34613, 29652, 25653, 24993, 28031, 31819, 33222, 32930, 32799, 32529, 32055, 32740, 35082, 37740, 38772, 37567, 34977, 31791, 28388, 25555, 25586, 29982, 35012, 36447, 35818, 33909, 29446, 27519, 32002, 36415, 36985, 37498, 37463, 35492], [32768, 32768, 32768, 32768, 32768, 32768, 32768, 32768, 32768, 32768, 32768, 32768, 32768, 32768, 32768, 32768, 32768, 32768, 32768, 32768, 32768, 32768, 32768, 32768, 32768, 32768, 32768, 32768, 32768, 32768, 32768, 32768, 32768, 32768, 32768, 32768, 32768, 32768, 32768, 32768, 32768, 32768, 32768, 32768, 32768, 32768, 25994, 23830, 24984, 28056, 32346, 37561, 40814, 39320, 35570, 33992, 34346, 34029, 33365, 33464, 32953, 30459, 27185, 25391, 26035, 28591, 32307, 36616, 40143, 40509, 37059, 33014, 31641, 32044, 32288, 32892, 34061, 33863, 31181, 27688, 26093, 27485, 30765, 34351, 37536, 39374, 38152, 34381, 31463, 31111, 31896, 32687, 33554, 34303, 34095, 31873, 28368, 26617, 28030, 30865], [32768, 32768, 32768, 32768, 32768, 32768, 32768, 32768, 32768, 32768, 32768, 32768, 32768, 32768, 32768, 32768, 32768, 32768, 32768, 32768, 32768, 32768, 32768, 32768, 32768, 32768, 32768, 32768, 32768, 32768, 32768, 32768, 32768, 32768, 32768, 32768, 32768, 32768, 32768, 32768, 32768, 32768, 32768, 32768, 32768, 32768, 33097, 40024, 43290, 42683, 39465, 35124, 31677, 30335, 30079, 29521, 28880, 28745, 28993, 29750, 31535, 34131, 36402, 37429, 37509, 37424, 36671, 33612, 28421, 24717, 25779, 29727, 32088, 32745, 35220, 39350, 41099, 39472, 36949, 33826, 28671, 23194, 21030, 23099, 27657, 32930, 37774, 41063, 41645, 39582, 36721, 34523, 32734, 31000, 29674, 28936, 28595, 28544, 28996, 30277], [32768, 32768, 32768, 32768, 32768, 32768, 32768, 32768, 32768, 32768, 32768, 32768, 32768, 32768, 32768, 32768, 32768, 32768, 32768, 32768, 32768, 32768, 32768, 32768, 32768, 32768, 32768, 32768, 32768, 32768, 32768, 32768, 32768, 32768, 32768, 32768, 32768, 32768, 32768, 32768, 32768, 32768, 32768, 32768, 32768, 32768, 37730, 39274, 38406, 35250, 31754, 28881, 26359, 25895, 28501, 31524, 33075, 34084, 34713, 34312, 33865, 34749, 36371, 36960, 35972, 34398, 32844, 30612, 27624, 26206, 28467, 32692, 35517, 35897, 34266, 31258, 28846, 29275, 32858, 37711, 40421, 39027, 35702, 32860, 29757, 26795, 26669, 29019, 31235, 33058, 34534, 34480, 33582, 33072, 32416, 32625, 35561, 38457, 37142, 33249], [32768, 32768, 32768, 32768, 32768, 32768, 32768, 32768, 32768, 32768, 32768, 32768, 32768, 32768, 32768, 32768, 32768, 32768, 32768, 32768, 32768, 32768, 32768, 32768, 32768, 32768, 32768, 32768, 32768, 32768, 32768, 32768, 32768, 32768, 32768, 32768, 32768, 32768, 32768, 32768, 32768, 32768, 32768, 32768, 32768, 32768, 31325, 30653, 31024, 32106, 33407, 34561, 35028, 34422, 33336, 32709, 32527, 32285, 32110, 32286, 32511, 32415, 32051, 31735, 31758, 32155, 32805, 33651, 34442, 34588, 33947, 33224, 32777, 32241, 31788, 31898, 32246, 32364, 32363, 32412, 32418, 32330, 32449, 33081, 33783, 33895, 33668, 33587, 33345, 32629, 31905, 31752, 32166, 32691, 32864, 32582, 32177, 32075, 32342, 32753], [32768, 32768, 32768, 32768, 32768, 32768, 32768, 32768, 32768, 32768, 32768, 32768, 32768, 32768, 32768, 32768, 32768, 32768, 32768, 32768, 32768, 32768, 32768, 32768, 32768, 32768, 32768, 32768, 32768, 32768, 32768, 32768, 32768, 32768, 32768, 32768, 32768, 32768, 32768, 32768, 32768, 32768, 32768, 32768, 32768, 32768, 23043, 28301, 35449, 40219, 42943, 43323, 38369, 30198, 26645, 29066, 31207, 31612, 33492, 35473, 33458, 27780, 23758, 25331, 29934, 33719, 38090, 44496, 47566, 41840, 32135, 27042, 25887, 24137, 24412, 29717, 35306, 35850, 32584, 30255, 31187, 33750, 35974, 38239, 40419, 38708, 31527, 25985, 27597, 30886, 31404, 32871, 35970, 36194, 32333, 27350, 25271, 28020, 32823, 36411], [32768, 32768, 32768, 32768, 32768, 32768, 32768, 32768, 32768, 32768, 32768, 32768, 32768, 32768, 32768, 32768, 32768, 32768, 32768, 32768, 32768, 32768, 32768, 32768, 32768, 32768, 32768, 32768, 32768, 32768, 32768, 32768, 32768, 32768, 32768, 32768, 32768, 32768, 32768, 32768, 32768, 32768, 32768, 32768, 32768, 32768, 0, 0, 0, 0, 0, 53378, 65535, 65535, 65535, 64828, 54347, 38811, 26317, 40782, 64857, 56328, 10834, 0, 0, 0, 0, 1224, 24082, 64302, 65535, 65535, 65535, 65535, 65535, 59771, 45225, 28150, 0, 0, 0, 0, 0, 16533, 65535, 65535, 65535, 43863, 0, 0, 26804, 48699, 65535, 65535, 65535, 63334, 9937, 0, 0, 0]], "framecount": 0.0, "time": 1489540199186}
{"dataframe": [[25855, 27087, 29848, 32688, 35633, 38896, 37588, 30371, 26983, 33552, 40424, 38100, 32171, 31335, 34329, 34830, 30958, 27560, 28749, 31209, 30837, 29875, 31176, 33364, 35352, 38188, 40988, 40473, 35510, 28858, 24026, 22773, 25201, 29717, 33609, 36360, 40486, 45774, 46599, 39222, 28190, 20667, 17072, 15346, 19686, 31806, 42703, 46480, 47958, 49011, 45202, 36838, 27950, 19865, 14438, 14058, 17599, 24442, 35847, 49582, 59344, 56143, 38120, 22121, 21898, 26071, 23920, 22946, 26782, 31056, 36834, 43098, 43876, 40819, 38481, 34588, 28386, 23956, 21728, 20631, 23985, 32921, 42261, 47724, 48245, 42959, 34001, 26413, 21547, 18531, 19925, 26879, 34771, 40090, 43330, 43789, 40364, 35209, 30882, 27511], [33826, 30175, 24750, 25700, 31772, 34015, 34522, 35241, 29696, 23826, 28225, 36707, 43474, 48317, 42699, 29785, 27026, 30023, 23823, 18529, 26326, 35829, 37810, 38087, 38365, 35458, 31575, 29277, 29229, 33489, 39674, 40854, 36408, 31073, 26036, 23026, 26988, 34217, 35552, 34494, 37208, 35511, 26976, 25130, 31562, 34839, 36129, 40672, 42043, 36999, 31939, 28844, 25543, 24845, 28345, 31722, 34071, 36920, 35758, 29730, 27871, 32698, 36313, 36991, 39298, 40965, 37183, 30768, 26361, 24328, 25316, 29802, 33985, 34768, 33847, 33019, 31881, 30968, 32267, 35979, 39575, 40778, 38855, 33876, 27868, 24387, 24998, 28376, 32078, 34028, 34316, 34233, 33006, 30579, 30712, 34716, 38491, 39443, 38440, 35987], [33867, 37076, 38805, 36964, 33518, 32052, 32062, 31582, 32134, 35043, 37199, 34997, 29471, 25430, 25870, 28669, 30920, 33571, 37646, 39886, 37603, 33776, 32093, 32029, 32460, 33878, 35486, 35186, 32142, 27737, 24881, 25338, 28086, 31805, 36354, 39886, 39391, 36233, 34586, 34537, 33883, 33219, 33195, 32152, 29656, 27163, 25919, 27249, 31166, 34921, 36954, 38535, 38770, 34999, 29808, 28671, 31176, 33459, 35142, 36934, 37507, 35650, 31334, 26240, 23680, 24804, 27657, 31583, 36896, 40418, 39114, 36301, 35947, 36036, 34687, 33852, 33342, 30955, 27372, 24468, 23395, 25713, 31191, 36742, 40460, 42183, 40413, 35075, 30374, 29252, 30075, 31348, 33651, 36309, 36612, 33064, 27757, 24708, 25891, 29471], [32124, 33781, 35251, 36977, 38011, 36992, 34661, 32569, 30719, 29020, 28627, 30070, 32252, 33940, 34752, 34752, 33975, 32553, 31238, 31134, 32478, 34596, 36604, 36975, 34571, 30774, 27802, 26192, 26443, 29496, 33970, 37220, 38883, 39518, 37996, 34162, 31004, 30438, 30548, 29725, 28938, 28855, 29281, 30684, 33122, 35588, 37441, 38351, 37781, 36109, 34213, 31792, 28878, 27253, 27667, 29048, 31077, 33401, 34539, 34539, 34872, 35434, 35352, 34920, 34362, 33242, 31759, 30393, 29345, 29525, 31547, 33773, 34261, 33468, 32826, 32546, 32301, 32391, 33216, 34402, 35029, 34647, 33613, 32463, 31401, 30505, 30280, 31296, 32933, 33729, 33355, 32858, 32776, 32613, 32478, 33130, 34138, 34518, 34371, 33773], [30508, 28555, 26949, 27830, 30706, 33009, 34864, 36464, 36104, 33894, 31722, 31135, 32892, 35091, 35193, 34451, 34176, 32501, 29727, 28358, 28392, 30827, 36968, 39967, 33290, 25337, 26878, 33023, 34350, 32930, 34778, 38656, 39884, 37362, 33664, 31179, 29682, 28233, 27293, 27209, 27688, 29291, 31931, 33831, 35229, 38248, 41232, 40772, 38349, 36350, 32859, 27595, 24680, 25574, 27573, 29532, 31978, 33717, 33697, 33227, 33496, 34223, 35403, 37107, 38075, 37191, 35044, 32329, 29224, 27348, 28437, 30871, 31901, 31684, 31299, 30655, 30670, 32751, 35833, 37899, 38814, 38932, 37443, 34003, 29756, 26308, 25171, 26853, 29906, 32498, 34000, 34428, 34219, 34301, 35039, 35850, 36288, 36515, 36188, 34122], [33281, 33939, 34217, 33640, 32697, 32202, 32213, 32316, 32387, 32597, 33023, 33280, 32825, 31956, 31589, 31969, 32694, 33488, 34161, 34395, 33958, 32922, 31770, 31236, 31608, 32404, 33137, 33642, 33603, 32883, 32053, 31680, 31698, 32044, 33011, 34286, 34634, 33627, 32583, 32508, 32764, 32719, 32641, 32644, 32480, 32071, 31545, 31240, 31658, 32864, 34141, 34790, 34807, 34206, 32859, 31528, 31214, 31646, 32244, 33152, 34011, 33851, 32749, 31700, 31271, 31510, 32165, 32925, 33886, 34645, 34125, 32762, 32230, 32635, 32984, 33172, 33254, 32785, 31802, 30902, 30709, 31568, 32972, 33754, 33703, 34122, 35119, 34506, 32093, 30882, 31857, 32827, 32914, 33215, 33558, 32815, 31527, 31131, 31662, 32141], [39527, 42200, 39940, 32163, 26848, 28051, 30521, 31981, 35148, 37802, 34905, 27757, 23018, 24398, 29550, 34806, 38926, 41878, 42040, 37086, 30169, 28194, 30815, 32463, 32775, 33707, 33868, 31300, 26577, 23548, 25697, 31408, 37031, 41373, 43913, 42054, 34743, 28084, 28155, 30921, 31247, 31969, 34198, 33380, 28731, 24607, 24642, 29259, 35549, 40289, 43129, 43325, 37911, 29215, 25749, 28940, 31557, 32182, 34642, 36306, 32629, 26404, 23562, 25940, 30909, 35384, 39030, 42516, 43424, 38249, 29970, 26524, 29065, 31477, 31960, 33463, 35105, 32932, 27024, 22916, 25101, 31552, 37506, 41433, 43692, 42275, 35469, 28079, 26630, 29462, 31303, 32309, 34142, 34687, 31419, 26093, 24092, 27821, 33887, 38629], [0, 10205, 58336, 65535, 63783, 57920, 65535, 65535, 65535, 65535, 65535, 50704, 0, 0, 0, 0, 0, 22790, 65535, 65535, 65535, 65535, 60682, 53398, 48246, 46454, 47380, 35744, 3465, 0, 0, 0, 3089, 33188, 61185, 65535, 65535, 45178, 7808, 3716, 31647, 65535, 65535, 65535, 65535, 65535, 0, 0, 0, 0, 0, 29516, 65535, 65535, 65535, 65535, 65535, 65535, 61802, 28723, 6613, 0, 0, 0, 0, 0, 23346, 65535, 65535, 65535, 65535, 65003, 17267, 1432, 672, 19480, 58738, 65535, 65535, 14973, 0, 0, 0, 0, 15326, 65535, 65535, 65535, 65535, 65535, 65535, 63317, 48029, 39212, 22487, 0, 0, 0, 0, 0]], "framecount": 1.0, "time": 1489540199389}
{"dataframe": [[24922, 24070, 25624, 29684, 35824, 41544, 43288, 39787, 33019, 26999, 25087, 27048, 30105, 32411, 34211, 36634, 39240, 39207, 35393, 31501, 30568, 29539, 26420, 25888, 29965, 34373, 37131, 38283, 36460, 33803, 33365, 32319, 29328, 29403, 32925, 33658, 31263, 31627, 34880, 35569, 33016, 30993, 30463, 30706, 32132, 33826, 34511, 35446, 37109, 36805, 33545, 30326, 29208, 28678, 27083, 26184, 29079, 34772, 39078, 40262, 39180, 36925, 34878, 33220, 30279, 26355, 24964, 27730, 31879, 35443, 39209, 41116, 37848, 32080, 28083, 25106, 23251, 26464, 33825, 38871, 40061, 40366, 38472, 32371, 26882, 27394, 31396, 33360, 32844, 32544, 32774, 31925, 30483, 31133, 33848, 35465, 35961, 37804, 38917, 35117], [32501, 28879, 25847, 25247, 28155, 31957, 33831, 34108, 33905, 33344, 32725, 33238, 35700, 38526, 38895, 36499, 33266, 29825, 25957, 23903, 26570, 31818, 34702, 35649, 37410, 37114, 32360, 28073, 28618, 32484, 37820, 42772, 42043, 33839, 25338, 23024, 25703, 30189, 34051, 34946, 33681, 32764, 32335, 32025, 32661, 34733, 37365, 38207, 36218, 33890, 32491, 29206, 24510, 25011, 32120, 37559, 36882, 35103, 34152, 30159, 25413, 27118, 34545, 40311, 41472, 39871, 36127, 30781, 26795, 25835, 26647, 28769, 32362, 35144, 34732, 32554, 31652, 32368, 33586, 35585, 38053, 38873, 37295, 34692, 31405, 27105, 24702, 27471, 32673, 34545, 31625, 28323, 30007, 35269, 37650, 35937, 34214, 34778, 37023, 38338], [32685, 35381, 38054, 38677, 36268, 33950, 33787, 33748, 32826, 33050, 34595, 33984, 29379, 24627, 24561, 28555, 32784, 35659, 37608, 38537, 37560, 34479, 31117, 29966, 31527, 34505, 38009, 40714, 38008, 27221, 16077, 15250, 24206, 34086, 39375, 40555, 40571, 41672, 42996, 41230, 36589, 34262, 33255, 24400, 9179, 3480, 14801, 33546, 47921, 53842, 53832, 52433, 49052, 37224, 16842, 2318, 6829, 23210, 36861, 46172, 51490, 45728, 32008, 23923, 23283, 24132, 29964, 42613, 50364, 43959, 28303, 14733, 13065, 24160, 37709, 45266, 47563, 46024, 40081, 31896, 24686, 20240, 20555, 25804, 31675, 33698, 32489, 32579, 36372, 40679, 41627, 39884, 37727, 35751, 33750, 30511, 25427, 21699, 22101, 24409], [32282, 30519, 29622, 29933, 31555, 33856, 35138, 34956, 34308, 33609, 33385, 34185, 34357, 32267, 29502, 28174, 28682, 31007, 33813, 35028, 35246, 35194, 33781, 33527, 37527, 40189, 33785, 21796, 16751, 24967, 37417, 41892, 39138, 36167, 34802, 35936, 38887, 36320, 26090, 17940, 17975, 22447, 29344, 40283, 51848, 55608, 47559, 33754, 23904, 20982, 21123, 20528, 19215, 22523, 34451, 46709, 49463, 47360, 45638, 38533, 26274, 19202, 20480, 25251, 30660, 34472, 34291, 31404, 29047, 30809, 38386, 45388, 43559, 36108, 31382, 29386, 26764, 24954, 25732, 28156, 31588, 35219, 37352, 37799, 37183, 35700, 34696, 34405, 32269, 28883, 28528, 30854, 31504, 30197, 30020, 32288, 35953, 37774, 35224, 31634], [30345, 27183, 26508, 27418, 28490, 30383, 33882, 37024, 37326, 35652, 34442, 34055, 33891, 34134, 34560, 34413, 33504, 31817, 29616, 28308, 28974, 30540, 31409, 31743, 32240, 32767, 33685, 35243, 35850, 34850, 34449, 35601, 36069, 34508, 32432, 31345, 30632, 29113, 27851, 28834, 30597, 30575, 30743, 33653, 36992, 38076, 37394, 35889, 34808, 35565, 36023, 32580, 27494, 26417, 28900, 30557, 31379, 32721, 32828, 31556, 31365, 32815, 35325, 38392, 39710, 37682, 34401, 31815, 28985, 26325, 26931, 30683, 33468, 33947, 34000, 33631, 32027, 30642, 30960, 32407, 34472, 37586, 40421, 39600, 33930, 26931, 23718, 25829, 30443, 34762, 37795, 37596, 33117, 28386, 27790, 30487, 34230, 38011, 39426, 36933], [32426, 33173, 34264, 34704, 34123, 33337, 33088, 32941, 32281, 31679, 31901, 32318, 32049, 31673, 31987, 32693, 33306, 33597, 33486, 33319, 33299, 33246, 33316, 33466, 32901, 31659, 31366, 32642, 33547, 32749, 31777, 31840, 32030, 32236, 33217, 33960, 33453, 32960, 33323, 33509, 33403, 33827, 33989, 33115, 32109, 31030, 29488, 28857, 30104, 32511, 35070, 36670, 36808, 35928, 34161, 32030, 30813, 30538, 30595, 31310, 32399, 32812, 32729, 32840, 32988, 33081, 33187, 33053, 33165, 34196, 35034, 34257, 32382, 30582, 29691, 30550, 32652, 34106, 34069, 33283, 32870, 33255, 33436, 32445, 31419, 31876, 33014, 33426, 33409, 33569, 33743, 33472, 32357, 31341, 31895, 32805, 32106, 31317, 32417, 33923], [41538, 42759, 40276, 32836, 25865, 25857, 29747, 31638, 33166, 36048, 35901, 30737, 25636, 25785, 30389, 35124, 37806, 39546, 40326, 36891, 29842, 26639, 29970, 33589, 34304, 34896, 35677, 33401, 27159, 21988, 23714, 30586, 36538, 40204, 43228, 42679, 34968, 26694, 27194, 32489, 34214, 34519, 36198, 34944, 29269, 22894, 19984, 23514, 31350, 38045, 42958, 47101, 45734, 36583, 28203, 27075, 28266, 28769, 31957, 35417, 33461, 27663, 23540, 24162, 29183, 35630, 40717, 43938, 44750, 40312, 31156, 25151, 26576, 29856, 31360, 33476, 35308, 33327, 28366, 24292, 24384, 29418, 36130, 41000, 44299, 44868, 38372, 28153, 24428, 27899, 31302, 33222, 34891, 34518, 31507, 27126, 24013, 25605, 30986, 36209], [18798, 65535, 65535, 65535, 65535, 63399, 37853, 21023, 9280, 21221, 49610, 59646, 31199, 0, 0, 0, 0, 4184, 61074, 65535, 65535, 65535, 60240, 65535, 65535, 65087, 61067, 49382, 15354, 0, 0, 0, 0, 0, 38396, 65535, 65535, 65535, 65535, 50397, 57511, 62736, 58997, 56379, 51303, 22013, 0, 0, 0, 0, 0, 50595, 65535, 65535, 65535, 65535, 50555, 33091, 28806, 46101, 65535, 48347, 0, 0, 0, 0, 0, 24899, 65535, 65535, 65535, 65535, 42306, 26135, 27413, 29149, 49298, 65535, 65535, 12399, 0, 0, 0, 0, 12814, 65535, 65535, 65535, 65535, 65535, 63741, 60510, 53139, 54370, 54570, 23508, 0, 0, 0, 0]], "framecount": 2.0, "time": 1489540199498}
{"dataframe": [[27423, 21540, 23574, 33185, 39862, 37270, 32433, 29118, 25397, 27694, 37990, 44137, 41604, 37907, 35054, 30919, 26773, 23012, 20489, 23216, 30750, 37813, 42863, 45870, 43825, 37349, 31984, 29496, 27708, 26288, 25627, 26032, 29158, 33951, 36233, 36227, 37440, 38141, 35156, 31835, 31486, 31417, 30317, 30494, 31586, 31878, 32454, 33896, 34503, 33804, 32657, 31429, 30746, 31726, 34839, 37320, 34982, 30847, 31515, 34015, 32147, 29363, 30422, 32206, 32117, 32726, 34480, 34756, 34030, 34395, 35090, 34925, 34161, 32717, 30524, 28357, 27184, 27985, 30941, 34241, 36034, 36877, 37691, 37643, 36138, 33804, 31093, 28582, 27077, 26334, 26562, 29656, 35234, 39016, 39132, 38364, 37132, 34022, 31899, 31473], [36059, 30971, 26826, 26562, 29097, 30924, 31645, 32849, 33063, 31050, 29198, 29813, 33974, 40218, 42582, 39092, 36294, 36573, 33786, 27100, 23819, 26169, 28861, 29293, 29811, 31334, 32255, 32817, 34689, 37322, 39770, 41974, 41206, 35849, 30707, 28275, 25084, 23082, 26915, 31913, 32584, 32326, 33616, 33241, 31980, 35433, 42290, 44173, 39276, 33221, 28365, 24396, 22890, 24144, 27601, 34660, 42293, 41708, 33137, 28290, 30273, 30979, 30062, 33366, 38483, 40146, 39037, 36682, 31920, 25431, 22400, 26196, 31329, 31745, 31707, 35494, 37156, 33304, 30497, 32635, 36358, 39115, 40376, 39045, 35334, 30608, 25757, 22312, 22248, 26572, 33800, 38736, 37807, 34282, 32084, 31275, 32794, 37361, 40880, 39190], [27543, 34700, 43211, 43096, 34265, 29544, 33402, 37383, 38057, 38600, 38665, 36992, 33254, 26157, 19582, 19103, 20530, 20273, 26009, 39207, 48239, 48678, 46850, 44290, 38930, 34001, 32048, 29573, 24167, 18655, 16750, 19590, 25541, 31759, 37432, 44032, 49783, 49347, 43428, 38699, 34695, 25834, 16018, 13851, 19081, 26911, 34695, 39098, 39575, 41301, 45008, 45264, 41098, 34291, 24123, 14733, 14836, 23864, 31922, 35452, 39369, 44124, 44923, 41632, 36492, 29055, 23067, 24755, 30469, 32021, 29715, 28007, 28669, 32616, 38545, 42222, 41863, 39248, 36495, 36418, 40022, 37828, 18452, 0, 0, 19951, 44494, 56553, 62142, 60831, 50319, 38980, 31359, 22497, 14117, 12250, 14954, 19849, 28859, 39162], [31332, 32399, 33046, 35697, 37711, 32920, 26437, 29415, 38724, 41425, 34318, 24450, 18689, 17710, 19358, 29068, 49428, 62837, 56003, 42406, 33454, 24184, 16586, 16867, 19462, 20616, 26190, 36066, 43032, 45199, 44519, 41512, 38207, 36087, 31603, 23609, 19314, 23468, 29906, 31582, 31465, 36439, 44119, 44363, 34892, 27292, 32022, 41081, 36818, 19476, 9746, 19147, 35633, 44141, 44156, 43220, 45468, 46639, 38199, 21064, 8896, 10443, 20135, 31378, 42960, 50611, 49258, 42616, 37193, 31214, 22653, 19856, 27135, 32812, 29723, 28712, 35653, 39658, 36412, 33727, 30949, 26006, 29766, 43252, 49048, 41675, 32356, 25461, 19815, 19931, 25910, 29308, 28886, 32065, 39144, 43842, 44667, 42601, 38237, 35550], [32921, 29720, 27798, 28372, 31203, 33133, 32945, 33147, 35977, 39010, 35856, 26707, 22433, 27806, 34131, 36853, 40183, 42472, 38616, 32201, 28593, 26578, 25537, 27256, 30219, 32465, 34089, 34393, 34126, 35836, 38307, 38730, 37779, 35660, 31183, 26803, 25094, 24817, 26124, 30292, 35220, 38515, 39092, 36023, 31970, 31538, 34608, 37729, 38368, 35224, 29948, 26262, 24966, 25516, 29371, 35459, 38747, 37390, 34702, 32563, 29625, 27555, 31273, 39584, 44195, 41159, 33925, 26009, 20506, 21048, 26652, 33243, 39232, 42745, 40370, 33680, 28822, 27975, 28969, 31447, 35203, 36748, 35320, 35311, 36397, 32580, 25746, 24897, 30209, 34214, 35373, 35591, 32999, 29232, 30759, 36057, 37991, 37424, 37352, 34717], [34079, 33287, 32081, 31207, 32102, 34261, 35546, 35413, 34370, 32419, 30357, 29234, 28666, 29250, 32827, 37473, 38848, 36473, 32247, 27847, 26857, 30716, 34768, 35777, 35652, 35243, 33884, 32788, 32434, 31524, 30361, 30217, 30743, 31398, 32723, 34340, 34784, 34010, 33575, 34600, 35617, 33403, 29220, 28993, 32632, 33623, 31901, 32696, 34600, 33675, 32022, 31964, 32182, 32760, 34266, 34473, 32610, 31468, 31987, 32122, 32017, 33431, 35110, 34899, 33060, 30457, 28502, 29472, 32786, 35362, 36039, 35305, 33856, 33065, 32947, 31932, 30520, 30437, 31198, 31751, 32719, 34706, 36732, 36949, 34401, 30285, 27092, 26854, 29859, 33762, 35821, 36441, 37008, 36735, 35316, 33761, 31386, 27557, 25197, 27445], [40632, 44171, 42644, 34505, 27653, 28861, 32832, 33383, 32966, 33342, 32224, 28542, 23300, 21323, 27079, 36013, 41169, 43252, 44229, 40507, 31766, 26161, 27661, 30658, 32114, 34120, 35579, 33471, 28121, 23235, 23528, 29534, 36067, 39732, 42492, 44096, 39256, 29100, 24285, 28016, 32213, 33862, 35697, 36028, 32151, 25715, 21511, 24209, 32090, 38021, 40512, 43338, 43507, 35774, 27221, 27292, 31091, 32058, 33622, 35980, 33983, 28186, 22767, 21407, 26304, 33964, 39538, 43689, 46501, 42857, 32686, 25994, 28025, 31479, 31485, 31699, 32743, 31292, 27488, 23883, 22713, 27022, 38486, 49624, 49281, 41689, 36912, 30009, 20780, 22231, 29750, 30060, 31152, 38688, 39362, 31172, 26551, 27361, 28587, 31573], [0, 63797, 65535, 65535, 65535, 65535, 55045, 48866, 48815, 60485, 65535, 47351, 0, 0, 0, 0, 0, 0, 65535, 65535, 65535, 65535, 65535, 49209, 44662, 34580, 32157, 59029, 59934, 0, 0, 0, 0, 0, 0, 29758, 65535, 65535, 65535, 56401, 0, 0, 0, 0, 10089, 28698, 6089, 0, 0, 0, 25427, 61489, 65535, 65535, 65535, 42434, 0, 0, 0, 1653, 65535, 65535, 65535, 26107, 0, 0, 0, 0, 65535, 65535, 65535, 65535, 59063, 33550, 31941, 33352, 44490, 65535, 65535, 23494, 0, 0, 0, 0, 0, 48455, 65535, 65535, 65535, 65535, 65535, 55223, 52316, 59994, 57087, 34014, 0, 0, 0, 0]], "framecount": 3.0, "time": 1489540199592}
{"dataframe": [[28882, 26293, 28241, 31526, 32840, 34234, 35180, 32738, 28989, 29385, 35741, 43406, 45894, 41793, 33609, 24158, 18200, 19522, 25225, 29926, 33263, 38027, 42564, 41965, 37427, 34514, 33475, 31572, 29907, 30104, 30009, 28371, 28636, 32537, 35559, 35184, 35335, 36303, 33681, 29569, 28669, 29636, 31430, 34964, 36994, 35141, 33086, 33201, 33115, 32344, 32678, 32915, 31692, 31027, 31744, 31912, 31243, 31293, 32437, 34113, 35791, 36309, 35089, 33316, 31644, 29961, 29691, 31511, 32986, 32395, 30615, 29512, 33411, 43157, 47132, 36907, 23881, 20027, 21458, 23508, 29856, 42103, 52359, 49794, 36054, 25603, 24375, 24404, 23021, 25539, 30700, 33589, 35754, 39723, 42833, 41859, 37101, 31586, 28657, 28156], [33852, 29410, 27641, 27247, 27976, 30367, 32840, 33717, 33437, 32583, 31443, 31421, 33009, 34572, 36065, 38787, 40705, 38325, 31729, 24917, 23233, 27607, 31918, 32097, 31956, 34080, 34954, 32496, 29879, 31715, 38170, 42261, 38848, 33353, 31783, 30683, 27127, 26450, 30925, 33857, 32251, 31796, 34277, 34179, 30467, 28663, 31525, 37256, 42295, 41860, 35575, 29222, 25776, 24639, 27095, 31657, 34130, 35725, 37233, 33997, 28726, 30135, 35069, 34951, 33236, 36148, 39285, 37028, 31608, 27046, 24930, 26441, 31619, 36850, 36776, 31686, 28968, 31360, 32638, 31233, 34056, 41347, 43544, 37411, 30755, 28730, 28147, 26554, 26382, 29002, 32169, 34159, 35305, 35316, 33811, 32965, 34669, 36786, 36797, 35637], [44719, 45262, 43740, 39839, 33140, 28477, 30804, 35772, 34080, 28299, 31836, 41922, 37475, 18139, 9865, 20983, 33901, 39617, 43953, 48310, 47147, 37575, 25404, 21550, 27347, 32177, 31944, 33205, 36391, 35067, 30464, 29034, 30760, 32022, 32793, 34245, 34762, 32328, 29207, 29703, 33387, 36808, 39504, 41778, 40905, 34851, 25895, 18380, 16999, 23978, 33468, 38972, 43989, 48318, 40825, 25182, 21664, 31285, 36804, 35630, 33511, 27022, 20415, 25727, 36960, 40637, 40566, 43363, 43202, 35650, 24229, 15145, 16230, 27582, 37470, 40510, 42350, 43625, 41285, 37239, 31516, 22348, 15862, 19557, 29774, 37072, 38425, 37540, 37753, 38942, 39299, 37360, 33049, 28482, 27389, 31304, 35299, 32444, 24838, 21905], [34444, 27468, 16410, 13718, 21534, 29880, 34212, 39870, 49632, 52651, 38342, 22368, 26072, 36363, 35037, 34823, 39408, 29443, 11315, 9926, 22493, 34932, 47773, 55551, 48725, 37691, 33532, 29529, 24249, 25388, 29161, 28837, 28380, 29807, 29978, 31310, 35938, 39821, 41575, 42230, 39161, 32169, 25748, 21765, 20423, 23757, 31298, 39402, 44512, 43956, 39674, 35478, 29467, 24737, 31129, 38740, 27908, 11308, 14373, 30654, 44492, 56546, 59821, 44816, 26611, 20434, 17954, 13611, 16680, 31046, 48706, 56435, 46950, 31574, 25918, 26887, 24849, 21533, 22054, 27956, 38685, 48750, 51068, 45150, 35408, 26299, 21726, 22227, 23670, 23896, 26475, 34042, 43237, 48518, 45225, 32724, 21651, 24206, 34067, 38129], [30059, 28359, 27804, 24963, 25355, 32969, 39485, 37721, 32896, 31715, 33211, 33478, 31995, 32355, 37333, 44287, 45913, 36460, 20708, 12315, 18068, 29942, 36437, 36498, 37214, 39520, 37079, 31879, 33193, 38368, 36033, 27611, 25371, 31537, 35149, 30915, 29341, 37714, 43282, 35425, 26173, 26663, 29322, 27413, 25541, 28950, 37867, 46287, 46541, 39404, 31734, 26860, 24825, 26386, 31119, 34985, 34282, 30621, 28756, 30773, 34032, 34868, 34391, 35707, 36481, 34464, 33873, 35330, 32818, 27420, 27225, 31543, 31771, 28985, 32809, 40701, 40389, 32168, 26378, 26666, 31549, 39081, 42718, 36647, 26676, 23305, 26685, 30255, 32841, 36725, 40829, 41893, 38337, 31455, 24481, 21016, 23375, 30572, 38184, 41650], [32280, 35293, 36034, 36092, 34920, 33211, 33592, 34926, 33958, 31398, 30347, 31882, 34028, 33485, 29488, 25841, 27159, 32717, 37282, 38490, 38170, 37197, 34823, 32109, 31164, 31053, 29651, 28743, 30347, 31726, 31056, 31140, 33343, 35616, 36861, 37307, 36450, 33875, 30818, 29136, 28983, 29539, 31468, 35384, 38710, 38043, 33645, 28059, 23779, 24356, 30611, 36906, 38907, 38727, 37976, 35567, 32771, 31541, 30774, 29628, 29530, 30642, 31531, 31950, 32060, 31635, 32026, 34628, 37550, 37774, 34953, 31532, 30346, 31541, 32589, 31878, 30758, 31525, 33441, 33849, 33512, 34064, 33106, 29918, 28990, 31760, 33936, 34169, 35995, 39464, 39667, 34336, 26388, 21157, 23303, 31049, 36674, 37266, 36816, 36841], [37982, 43417, 42498, 35349, 28146, 27063, 30914, 33632, 33748, 34323, 35260, 32350, 24969, 20438, 24613, 33161, 39233, 42165, 43539, 41246, 33806, 27381, 27986, 31250, 32080, 33042, 34789, 33419, 28593, 24014, 23291, 27706, 35108, 41464, 44194, 43039, 37942, 30770, 27001, 28231, 30197, 31859, 34675, 35938, 32879, 27670, 24311, 24471, 27848, 33943, 40611, 44682, 44453, 38596, 29773, 26601, 30529, 32534, 30814, 32170, 35029, 31759, 24232, 21550, 26191, 33066, 38438, 42253, 44805, 43550, 35602, 26140, 23964, 28470, 34246, 38344, 37248, 31689, 26620, 22535, 20826, 25605, 33758, 39607, 44033, 47282, 43755, 33421, 26683, 28196, 30602, 30604, 31907, 33159, 30629, 26052, 23480, 25227, 30710, 37038], [0, 19798, 65535, 65535, 65535, 65535, 65535, 65430, 54109, 43059, 45780, 45868, 17789, 0, 0, 0, 0, 0, 57466, 65535, 65535, 65535, 65535, 51160, 38787, 35834, 25073, 28422, 61019, 63476, 0, 0, 0, 0, 0, 42549, 65535, 65535, 65535, 65535, 65535, 62956, 48869, 43763, 49579, 46710, 299, 0, 0, 0, 0, 19407, 65535, 65535, 65535, 65535, 65535, 55895, 37037, 27197, 31635, 35213, 17222, 0, 0, 0, 0, 4663, 64326, 65535, 65535, 65535, 64644, 34245, 21897, 33990, 58858, 65242, 47183, 16991, 0, 0, 0, 0, 0, 51178, 65535, 65535, 65535, 54690, 53340, 47884, 37343, 40109, 44447, 36186, 14726, 0, 0, 0]], "framecount": 4.0, "time": 1489540199701}
{"dataframe": [[31863, 31473, 31250, 32152, 33947, 34841, 34528, 34193, 33688, 32484, 31306, 30777, 31028, 32237, 33773, 34590, 34385, 33228, 31822, 31417, 32002, 32614, 32947, 32956, 32645, 32551, 33048, 34101, 35171, 34163, 30446, 28415, 30896, 33721, 33797, 33549, 34036, 33736, 33228, 33131, 31812, 30001, 31257, 35207, 37287, 36053, 33834, 31322, 28357, 27012, 28541, 31083, 32998, 34974, 37550, 38876, 37122, 33722, 31391, 30448, 29663, 28998, 29398, 31018, 33070, 34594, 35029, 35073, 35670, 35385, 32599, 29876, 30323, 31946, 31909, 31711, 32914, 33823, 33546, 33449, 33800, 33732, 33357, 32896, 32150, 31690, 32042, 32737, 33135, 32690, 31524, 31083, 31995, 32942, 33373, 33949, 34286, 33957, 33784, 33589], [37681, 33082, 28510, 24600, 24177, 28430, 32403, 32269, 31532, 32426, 32333, 31988, 34343, 37744, 39292, 38783, 36818, 34418, 31958, 28481, 25612, 26415, 29579, 31991, 33599, 34527, 33180, 30048, 28827, 32213, 38311, 42305, 41710, 38278, 34239, 29666, 25320, 24181, 26608, 28931, 30779, 35126, 38555, 35038, 28472, 26831, 30360, 36072, 42851, 47128, 44544, 36334, 27054, 20150, 18812, 23618, 29918, 33717, 35050, 34474, 33536, 34764, 37099, 37959, 38327, 39305, 38434, 33708, 27164, 22892, 22755, 25062, 28390, 33379, 38414, 39155, 35536, 33141, 34084, 34489, 34219, 36692, 38410, 34437, 29332, 27933, 26830, 25051, 27074, 32015, 35377, 36953, 37492, 36385, 34110, 31355, 29939, 32495, 36977, 39354], [28422, 35501, 42656, 44201, 37241, 32053, 34152, 37937, 41324, 42635, 35387, 23905, 19888, 20681, 19709, 23382, 33739, 40631, 41781, 43115, 42882, 37551, 31713, 29472, 29207, 29927, 32181, 34711, 34954, 31167, 25990, 25096, 27839, 28993, 30519, 36642, 42836, 43314, 39605, 35069, 31173, 29207, 28614, 28166, 30989, 39399, 46154, 41277, 23805, 3752, 0, 16120, 42956, 58308, 60536, 57718, 49896, 36267, 25097, 23157, 24563, 20729, 14386, 13192, 18289, 28543, 41756, 49162, 48048, 48306, 49719, 41090, 28084, 24561, 25570, 22770, 23053, 30207, 36086, 35850, 31004, 24759, 23563, 30455, 38970, 43577, 44864, 41708, 34547, 30132, 30384, 30395, 29258, 28282, 27513, 30908, 39068, 40466, 28576, 16169], [51450, 39135, 24243, 28310, 47230, 54088, 39306, 19595, 8464, 5920, 13201, 29642, 44104, 49680, 50778, 48834, 41568, 33330, 29394, 28235, 27438, 26939, 25691, 23767, 24238, 28037, 32391, 36402, 41703, 46145, 44775, 38578, 33358, 30232, 26366, 22706, 22960, 27405, 32623, 35309, 34433, 33292, 38304, 46655, 42612, 23410, 10687, 17430, 34082, 51275, 59955, 49600, 29933, 18912, 14577, 11953, 18069, 30554, 37493, 40367, 46713, 51948, 49526, 42656, 33525, 19163, 7802, 14214, 30445, 36023, 33906, 37354, 41445, 39083, 36097, 35710, 34600, 31926, 25979, 18166, 23128, 45323, 56977, 40042, 20924, 21899, 28025, 29157, 32856, 35352, 32165, 32000, 35494, 36181, 36644, 37180, 33562, 30402, 30728, 29524], [31520, 30749, 32572, 33271, 30772, 27482, 25363, 24591, 27496, 34095, 38527, 38131, 37443, 39039, 39297, 35793, 32199, 32102, 33075, 31037, 26121, 22382, 23838, 29796, 35267, 37362, 37445, 36620, 34710, 33806, 35975, 37837, 35581, 32660, 33136, 33038, 28001, 22670, 23280, 27653, 31651, 36817, 42128, 40891, 33810, 30349, 33716, 37099, 35024, 30670, 29883, 31791, 31403, 29161, 29357, 31605, 32528, 32381, 33735, 36733, 37678, 33315, 27673, 27812, 32667, 36873, 40139, 41499, 36236, 27072, 23661, 27621, 31391, 30882, 29419, 30794, 33860, 34610, 33034, 34187, 39172, 42106, 39800, 35591, 32662, 30205, 25840, 20707, 20171, 26274, 34106, 38778, 39976, 38838, 35994, 32643, 31103, 33027, 36759, 39100], [30930, 34010, 35304, 34129, 31378, 29599, 31081, 33964, 35267, 36048, 37078, 35873, 32665, 30553, 29842, 29628, 30375, 31398, 31452, 31318, 32210, 33955, 35560, 36037, 35345, 34481, 34126, 34079, 33528, 31533, 28722, 27524, 29005, 31416, 33044, 34144, 34995, 34911, 34438, 34834, 34979, 33626, 32871, 33861, 33621, 30770, 28059, 27374, 28482, 31261, 34545, 36280, 36639, 37017, 36776, 34631, 31437, 29494, 29932, 31290, 31818, 32194, 33040, 32782, 31407, 31529, 33547, 35065, 35102, 34434, 33356, 31966, 31036, 31182, 31978, 32668, 33231, 33813, 34045, 33809, 33198, 32026, 31022, 31251, 31494, 30665, 31336, 34612, 36788, 36335, 35377, 33562, 30344, 28752, 30039, 31831, 33109, 34280, 34639, 33769], [38029, 43608, 46766, 42802, 32133, 24294, 25402, 29107, 30485, 33608, 38187, 37406, 30366, 23630, 22742, 27488, 33854, 38854, 42421, 43723, 39156, 30286, 26347, 29603, 32157, 32085, 33967, 36256, 33873, 27199, 21958, 23238, 29825, 36258, 40349, 43439, 43549, 36947, 28516, 27465, 31613, 32758, 32167, 34034, 34956, 30822, 24135, 21080, 24785, 32220, 38638, 42903, 45591, 43831, 35301, 26878, 26193, 29096, 30251, 32545, 36092, 35591, 30103, 23895, 21905, 26331, 33992, 40035, 43719, 45307, 41214, 31660, 26008, 28265, 30584, 30070, 32017, 35090, 33418, 28190, 24837, 25838, 30466, 36301, 40710, 43158, 42986, 37083, 28029, 25208, 28956, 31073, 31760, 34980, 36622, 32700, 26678, 23857, 26205, 31496], [0, 5752, 61360, 65535, 65535, 65535, 65535, 52585, 41846, 31639, 33099, 42051, 39393, 14738, 0, 0, 0, 0, 21360, 65319, 65535, 65535, 65535, 47913, 37711, 35322, 38870, 50870, 59100, 46248, 10248, 0, 0, 0, 0, 27066, 65535, 65535, 65535, 65535, 51421, 43196, 40045, 44517, 56077, 59312, 38737, 0, 0, 0, 0, 0, 35197, 65535, 65535, 65535, 60714, 52204, 52607, 49133, 46119, 47519, 42786, 20620, 0, 0, 0, 0, 1615, 44903, 65535, 65535, 65535, 62223, 44337, 31356, 24561, 40212, 59916, 50529, 15118, 0, 0, 0, 0, 34619, 65535, 65535, 65535, 64160, 33686, 22919, 18947, 23071, 42291, 60663, 55657, 26141, 0, 0]], "framecount": 5.0, "time": 1489540199795}
{"dataframe": [[32369, 31351, 32068, 32827, 31976, 31361, 32360, 32825, 31614, 31239, 32966, 34558, 34667, 34641, 35249, 35026, 33137, 31638, 31741, 31026, 28768, 28404, 30982, 33326, 34163, 35138, 36182, 35483, 33419, 32354, 32691, 32769, 32368, 32521, 32686, 31713, 30361, 30236, 31490, 33034, 34017, 34438, 34638, 34543, 33839, 32802, 32253, 32330, 32228, 31717, 31409, 31530, 32158, 33262, 33730, 32867, 32148, 33231, 35401, 36303, 34869, 32504, 30706, 29289, 28384, 29356, 32033, 34184, 34834, 34942, 35094, 35127, 34667, 33225, 31497, 30936, 31073, 30739, 30995, 32684, 33820, 33154, 32613, 33557, 34835, 35537, 35213, 32842, 29626, 28698, 29877, 31117, 33379, 36386, 36026, 32564, 31471, 33399, 34287, 33533], [39619, 36629, 27890, 19433, 20298, 27870, 33439, 36010, 38617, 39648, 36568, 31563, 28999, 30696, 34703, 37624, 37613, 34730, 30378, 27204, 27027, 29110, 31867, 34727, 36924, 35911, 31152, 28009, 30091, 32967, 34154, 37180, 40395, 38384, 33411, 30291, 27992, 26273, 28129, 31997, 33990, 34578, 34393, 32159, 29820, 30096, 31918, 34634, 39113, 42364, 40333, 34809, 29426, 24664, 22704, 26656, 32827, 35210, 33886, 31833, 30881, 31324, 31867, 33871, 39704, 44322, 41597, 35333, 31027, 27068, 22960, 23240, 28351, 32912, 34189, 34287, 35032, 35155, 32529, 29251, 31539, 39561, 43781, 39423, 33743, 31133, 26991, 22248, 24047, 30150, 33499, 35384, 36780, 33882, 30047, 30758, 32991, 35301, 40434, 43738], [16608, 27694, 41590, 51911, 52613, 44708, 36651, 32114, 27421, 20445, 14610, 16832, 30455, 44983, 43985, 30569, 24872, 32060, 39259, 40780, 40339, 37890, 32087, 25960, 24209, 29103, 36535, 39630, 37995, 33758, 25559, 17594, 19121, 29016, 38030, 43348, 46371, 45193, 39604, 33422, 27794, 22691, 22225, 27669, 33593, 38094, 42910, 41447, 26941, 11671, 13641, 28866, 42310, 52002, 57140, 47695, 27199, 15551, 19170, 26560, 31709, 38156, 42979, 36961, 23788, 19442, 27295, 35620, 39661, 42324, 40252, 31956, 26990, 29883, 32807, 32560, 33867, 36426, 36858, 35518, 31940, 25932, 22791, 25536, 29751, 33218, 38001, 41463, 40057, 37385, 35031, 29427, 25340, 29913, 36248, 35401, 31862, 32190, 33605, 31314], [28933, 33523, 36890, 33755, 29313, 28552, 30958, 33758, 34395, 34072, 35443, 35298, 29667, 26393, 36069, 48982, 45384, 28640, 18759, 20022, 22774, 24465, 31218, 46336, 58489, 50679, 29011, 12390, 2616, 6168, 37710, 65535, 65535, 44220, 30339, 22216, 12333, 13465, 22924, 26927, 29775, 37829, 43987, 45064, 44663, 40362, 30528, 24210, 28395, 35156, 33960, 27864, 25345, 25919, 26905, 32249, 41996, 47326, 43954, 36271, 27276, 18316, 17742, 31956, 46858, 43555, 29465, 23190, 24487, 27994, 37571, 47659, 44796, 33406, 28495, 29902, 28928, 26307, 26417, 28419, 31269, 35252, 37873, 37076, 35689, 36847, 38484, 36866, 31766, 25908, 23376, 26096, 29952, 31085, 33380, 40411, 45055, 38182, 25597, 23435], [38675, 35118, 28963, 23578, 22380, 24464, 26900, 30026, 36358, 43422, 43464, 35391, 28921, 30328, 34999, 37584, 37332, 34398, 29912, 26160, 24721, 27261, 33290, 37327, 36021, 33646, 33221, 31136, 27059, 27244, 33483, 41000, 45575, 43339, 34024, 26196, 24979, 25054, 25185, 29561, 34855, 35944, 35471, 35309, 32803, 30071, 32467, 38136, 40123, 36377, 31154, 28767, 29179, 29633, 29596, 31178, 33993, 34813, 33407, 32246, 31183, 30186, 32556, 37137, 37535, 34460, 33923, 34709, 33084, 31035, 29930, 28548, 28609, 31457, 34393, 34953, 33028, 30493, 30127, 32094, 34855, 38042, 40130, 38615, 34432, 30904, 29072, 27870, 27344, 28099, 29102, 30175, 33207, 36611, 35948, 33167, 34101, 37157, 37797, 37694], [32373, 31395, 31787, 32995, 33050, 32450, 33535, 35160, 34175, 31437, 30512, 32143, 33809, 33484, 32076, 31583, 32010, 32402, 32831, 33351, 33695, 34062, 34206, 33193, 31246, 30284, 31400, 33428, 35342, 36833, 35901, 31383, 27089, 27188, 30320, 32934, 33929, 34130, 34902, 36415, 36732, 34999, 32868, 31253, 30112, 30193, 31024, 31009, 30843, 31974, 33483, 34039, 33968, 34214, 35056, 35517, 34326, 32017, 30557, 30760, 31728, 32635, 33102, 32535, 31374, 31053, 31659, 32644, 34387, 36269, 36311, 34283, 32153, 31344, 31330, 30826, 30174, 31147, 33491, 34908, 34551, 33136, 31583, 31306, 32794, 34370, 34744, 34113, 32393, 30566, 30976, 32967, 33747, 33413, 33216, 32733, 32154, 32249, 32265, 31693], [36070, 39605, 43501, 43897, 36162, 26900, 25779, 29585, 31321, 32816, 35991, 36696, 31779, 24232, 21354, 26226, 33540, 38554, 42141, 44012, 40456, 32318, 27369, 28836, 31053, 31649, 33775, 35844, 33646, 28177, 23759, 23717, 28153, 33936, 38731, 42775, 44383, 39517, 30761, 27288, 30318, 32545, 32620, 33839, 34413, 31066, 25146, 21549, 24079, 31093, 37827, 42313, 44900, 43567, 36273, 28315, 27042, 30041, 31313, 31989, 33850, 33946, 30274, 24915, 22767, 26827, 33991, 39405, 42312, 43962, 42006, 34064, 26573, 26759, 30148, 31203, 32881, 35504, 34130, 28802, 24200, 23445, 27345, 34302, 40545, 43908, 44450, 40209, 31412, 26210, 28615, 31319, 31032, 32357, 34389, 32133, 26601, 23102, 25002, 31363], [0, 0, 22132, 65535, 65535, 65535, 53286, 39130, 39520, 43795, 53304, 65535, 65535, 41271, 0, 0, 0, 0, 0, 36018, 65535, 65535, 65535, 65345, 49656, 42121, 42031, 51351, 60627, 53496, 21492, 0, 0, 0, 0, 11305, 61176, 65535, 65535, 65535, 58511, 48149, 40764, 39350, 49335, 56804, 40755, 462, 0, 0, 0, 0, 32776, 65535, 65535, 65535, 65535, 49902, 42623, 38483, 40229, 48953, 52376, 36162, 908, 0, 0, 0, 0, 45477, 65535, 65535, 65535, 47502, 39997, 45090, 48776, 53077, 56696, 49029, 23537, 0, 0, 0, 0, 10630, 56485, 65535, 65535, 65535, 55349, 37819, 28988, 28771, 44743, 61363, 50937, 12302, 0, 0]], "framecount": 8.0, "time": 1489540200092}
{"dataframe": [[32658, 31119, 29496, 30077, 32336, 34105, 35203, 35733, 34883, 33078, 31763, 31182, 30851, 31098, 31881, 32425, 33279, 34646, 34427, 32857, 33146, 34538, 33761, 31982, 31467, 31177, 30807, 31354, 31835, 31921, 33294, 35406, 35941, 34861, 33266, 31483, 30358, 30642, 31750, 33275, 34983, 35355, 33596, 31410, 30345, 30383, 31533, 33393, 34663, 34841, 34236, 33052, 31936, 31733, 32490, 33551, 33956, 32971, 31147, 30125, 30622, 31825, 33124, 34519, 35540, 35572, 34687, 33449, 32319, 31152, 29962, 29868, 31265, 32641, 33053, 33158, 33507, 34080, 34589, 34632, 34209, 33459, 32455, 31542, 30829, 30383, 30937, 32447, 33492, 33560, 33490, 33551, 33430, 33279, 33260, 33090, 32806, 32974, 33223, 32198], [39714, 33157, 28886, 24826, 21934, 24491, 30144, 32943, 33217, 34847, 36534, 35142, 33472, 34873, 36903, 37294, 37108, 36266, 33736, 29698, 24942, 22366, 25014, 30220, 33697, 35687, 36294, 34745, 33973, 35690, 37504, 38575, 38491, 35482, 31622, 29471, 26300, 22606, 24830, 32058, 36038, 35607, 35189, 34463, 32102, 30753, 31991, 34709, 37806, 39593, 38458, 35093, 31068, 27275, 25124, 25663, 27599, 30243, 34652, 38199, 36682, 32778, 31856, 33563, 35244, 36422, 37074, 36601, 34235, 30028, 26356, 26230, 29244, 32037, 33335, 34413, 34736, 32773, 29960, 29351, 32130, 36654, 39763, 40090, 38786, 35765, 30098, 24848, 24509, 27983, 31076, 32871, 33830, 33003, 30838, 29855, 31688, 35647, 39653, 42284], [26661, 24685, 28029, 34431, 39053, 39239, 36918, 35245, 34190, 33507, 37098, 43428, 38972, 21514, 12470, 21341, 29980, 29794, 31630, 36220, 36274, 36243, 41671, 46442, 44342, 38705, 34438, 29527, 21550, 16205, 18481, 24321, 30455, 37016, 40024, 39000, 39759, 40056, 34562, 30033, 32520, 35124, 33622, 32779, 33553, 33652, 33069, 29466, 22879, 21002, 26296, 31951, 35868, 40964, 44549, 42602, 37491, 32774, 29242, 27964, 29075, 30568, 31715, 32318, 31427, 30527, 31347, 31764, 30574, 31077, 34786, 37466, 36220, 35083, 37329, 37928, 31650, 24310, 26729, 36945, 40585, 34602, 30546, 29006, 21577, 16677, 27108, 42604, 46406, 40683, 35285, 32866, 33460, 36305, 37962, 37303, 35877, 32255, 23443, 12175], [33492, 40047, 36251, 31382, 30467, 30235, 30503, 32259, 32878, 29629, 23281, 22347, 36664, 56075, 56170, 35655, 18317, 15765, 22715, 37317, 50831, 43779, 20297, 8583, 16528, 29546, 42975, 56629, 58698, 44508, 27728, 19029, 16737, 19459, 26550, 32403, 34785, 37702, 40904, 40485, 37511, 34324, 30167, 26522, 26296, 28255, 31700, 38117, 42444, 38185, 30696, 28479, 29571, 29197, 28646, 30401, 33840, 36592, 36928, 35800, 35074, 33954, 31115, 28292, 27332, 27870, 30742, 36985, 42740, 42423, 36296, 29877, 27291, 27827, 27789, 25923, 26865, 33216, 38069, 37468, 37910, 38566, 31482, 25691, 35094, 47834, 44422, 29317, 17933, 15088, 19566, 29475, 38823, 41905, 40048, 37371, 34919, 32912, 33491, 37101], [37189, 32458, 26459, 25362, 27419, 29346, 32101, 34356, 33886, 33276, 34194, 33524, 31044, 31185, 34526, 37212, 38067, 38204, 36963, 33659, 29988, 28717, 31313, 36368, 40432, 34766, 5804, 0, 0, 36744, 65535, 65535, 65535, 65535, 45929, 11210, 0, 0, 0, 1987, 19429, 30514, 42469, 53483, 57909, 58517, 57665, 53347, 45634, 35611, 24130, 14428, 9188, 7994, 11374, 21464, 36058, 47314, 49172, 43734, 38124, 35754, 34492, 33285, 33682, 34984, 34661, 32175, 28884, 26316, 25446, 26510, 29246, 33021, 36521, 37935, 36399, 33438, 31360, 30028, 28639, 30067, 37127, 45241, 46419, 40091, 33872, 33373, 34502, 29504, 19665, 13447, 12732, 13595, 18160, 30587, 45947, 56265, 60706, 61365], [31598, 32386, 33267, 33969, 34544, 34589, 34127, 33595, 32633, 30886, 29768, 30900, 33012, 33662, 33098, 32850, 32872, 32870, 33382, 34380, 35065, 34744, 33018, 30077, 27126, 26050, 28281, 33302, 38491, 41307, 40932, 37833, 33112, 28399, 25562, 25718, 28408, 32048, 34830, 35558, 34675, 33866, 34054, 34735, 35007, 34374, 32980, 31356, 30008, 29379, 29793, 31090, 32774, 34374, 35289, 35222, 34715, 34000, 32638, 31292, 31368, 32577, 33255, 32664, 31651, 31472, 32222, 32840, 32709, 32425, 32866, 33670, 33623, 33198, 33915, 35081, 35038, 33725, 31285, 28402, 27760, 30254, 32940, 33869, 34363, 35801, 37468, 36712, 32136, 27772, 28336, 31508, 32904, 33320, 34382, 34838, 34189, 33446, 32913, 32399], [38063, 42200, 44255, 43418, 36799, 28144, 25868, 29116, 30952, 31498, 33492, 34530, 31635, 26195, 23414, 26825, 33253, 38071, 41840, 45244, 43181, 33332, 25034, 26214, 30410, 31380, 33788, 37747, 35125, 26271, 20601, 22355, 28282, 34849, 40497, 44617, 46496, 42980, 33487, 26225, 26620, 28552, 28520, 30930, 34737, 33728, 28063, 23842, 25251, 31047, 37124, 41417, 44319, 44200, 37779, 28466, 25479, 29181, 31234, 30879, 33055, 35357, 32315, 25577, 22175, 25771, 32659, 37975, 41959, 45665, 44766, 35798, 26111, 24828, 28376, 30042, 31894, 35269, 36183, 33100, 27935, 24404, 25924, 30552, 33808, 36244, 40383, 42298, 37701, 32875, 34067, 35833, 34094, 33045, 32832, 29189, 22722, 18075, 19383, 26906], [0, 0, 28084, 65535, 65535, 65535, 65535, 46366, 36544, 28699, 28501, 40157, 49641, 41234, 15147, 0, 0, 0, 0, 24244, 63813, 65535, 65535, 41100, 15546, 23058, 56513, 65535, 65535, 65535, 23647, 0, 0, 0, 0, 0, 47452, 65535, 65535, 65535, 64954, 48632, 46431, 50275, 56890, 58614, 41945, 6561, 0, 0, 0, 0, 23155, 65535, 65535, 65535, 65535, 52790, 43849, 41025, 41518, 43945, 42648, 29618, 3891, 0, 0, 0, 3179, 33631, 65535, 65535, 65535, 59407, 47610, 42672, 40174, 44289, 49075, 38955, 15471, 0, 0, 0, 0, 24014, 57944, 65535, 65535, 65009, 38840, 29640, 31789, 36075, 48022, 60971, 54170, 24518, 0, 0]], "framecount": 9.0, "time": 1489540200186}
{"dataframe": [[30378, 30194, 32097, 33993, 34656, 34543, 34022, 33157, 32338, 31828, 31507, 31453, 31947, 32952, 33932, 34150, 33552, 32943, 32688, 32289, 31730, 31805, 32610, 33124, 32839, 32117, 31046, 30603, 33152, 37967, 40200, 37796, 33713, 29899, 26011, 23782, 25650, 30195, 34199, 36519, 37204, 36872, 37187, 38066, 36791, 32831, 29044, 27066, 26839, 28677, 31651, 33785, 34867, 35553, 35547, 34598, 33036, 31365, 30341, 30536, 31811, 33470, 34595, 34478, 33579, 33708, 35090, 35269, 33581, 31750, 29842, 27738, 27096, 28249, 30452, 34108, 38272, 40103, 38947, 36681, 34448, 32175, 29845, 27816, 26613, 26734, 28977, 33617, 38415, 40276, 38768, 35271, 31031, 27769, 26969, 28281, 30774, 33980, 36530, 36921], [42719, 39298, 31962, 24494, 21185, 22913, 27024, 30460, 32891, 35356, 37094, 36767, 35131, 33940, 34424, 36951, 39024, 36745, 31192, 27322, 26322, 26511, 28317, 31645, 34069, 35153, 36193, 35964, 32951, 29481, 28950, 31451, 34730, 37322, 38877, 38358, 34341, 28944, 27614, 30891, 33006, 32046, 31196, 30275, 27997, 27488, 30511, 34763, 39185, 42970, 43035, 38715, 32871, 27199, 23107, 23849, 29215, 33747, 34530, 33636, 32213, 30176, 29648, 32620, 37927, 42195, 42289, 37881, 31513, 25953, 22841, 23459, 28500, 35518, 39691, 39341, 36439, 32205, 27656, 25535, 27530, 32389, 37566, 40713, 41046, 39507, 35726, 28961, 23418, 23804, 27058, 28770, 30832, 34322, 35953, 35483, 35757, 36914, 37911, 38791], [8657, 19588, 36988, 47721, 49349, 47698, 47783, 48968, 42617, 24829, 9806, 10781, 19566, 24995, 29852, 36503, 40880, 43543, 46149, 44162, 36711, 30358, 27562, 25868, 25319, 26143, 27782, 32222, 38795, 41686, 38824, 34237, 30716, 28391, 27396, 27734, 30276, 35013, 37295, 34767, 32938, 34192, 33864, 32350, 34566, 39100, 40796, 37027, 27629, 17290, 14193, 20350, 30158, 39245, 45943, 47351, 43276, 38282, 34279, 30048, 27953, 30460, 33786, 33173, 29300, 24857, 21109, 21080, 27052, 34853, 42524, 51989, 52612, 34800, 17666, 21238, 32638, 35905, 37681, 41553, 38068, 29113, 26801, 28165, 22131, 15254, 21186, 35522, 44874, 47061, 46656, 43927, 38102, 32158, 28847, 27955, 28087, 27358, 25739, 26728], [38872, 35128, 30090, 27773, 26031, 23919, 22853, 23452, 29057, 40218, 48025, 47882, 45042, 39216, 28179, 20658, 22046, 25083, 27379, 33608, 39265, 36839, 31194, 30677, 34744, 38767, 38990, 34049, 28474, 27514, 29336, 30493, 32031, 34214, 34687, 33833, 33815, 34620, 35290, 34789, 32160, 29037, 28972, 32690, 35550, 32195, 26186, 27565, 35409, 38109, 35679, 37947, 41426, 36393, 27918, 25178, 26301, 28074, 30907, 32706, 34483, 39041, 38578, 28091, 20398, 25890, 38682, 48587, 49603, 42426, 31110, 18962, 14672, 23759, 34389, 36039, 34237, 33099, 30823, 30944, 35288, 36374, 31794, 33008, 44932, 51739, 41308, 25291, 18038, 17345, 17967, 22723, 32236, 39869, 41506, 40484, 40979, 42588, 41645, 34569], [56488, 43408, 24899, 9601, 4983, 10399, 19434, 27680, 34415, 39261, 41387, 40530, 38301, 38321, 41214, 42026, 37613, 30987, 25636, 22484, 22193, 25350, 30984, 36278, 38428, 37283, 34822, 32755, 31802, 31823, 32262, 33263, 35164, 36388, 34894, 31864, 29798, 29168, 30324, 33044, 34049, 32171, 31785, 34035, 32806, 27267, 26846, 34547, 40879, 41511, 40841, 37857, 30123, 24113, 25122, 28883, 30589, 30860, 31483, 32631, 33766, 34076, 33737, 34680, 36939, 37968, 37603, 37000, 34490, 29210, 24630, 24750, 29383, 33916, 34500, 32835, 32282, 31759, 29514, 29198, 34060, 39777, 41363, 40160, 37963, 33939, 29409, 26551, 25060, 25059, 27364, 30971, 34808, 37700, 36969, 33078, 31207, 33718, 37188, 38428], [31586, 30308, 29782, 31255, 33379, 34162, 34262, 34891, 35091, 34183, 33388, 33207, 32724, 31602, 30266, 29308, 29497, 31018, 33030, 34625, 35534, 35672, 34968, 33867, 32928, 32261, 32032, 32327, 32507, 31953, 31116, 30990, 31636, 32067, 32093, 32876, 34796, 36234, 35419, 32900, 31097, 31420, 33032, 33916, 32720, 30842, 30958, 32568, 33105, 32731, 33078, 33559, 33147, 32708, 32920, 32986, 32496, 32116, 32436, 33342, 34098, 33948, 33183, 32782, 32584, 31754, 30792, 30504, 30708, 31829, 34242, 36068, 35761, 34605, 33627, 32215, 30937, 31085, 32142, 32831, 32686, 31900, 31514, 32358, 33336, 33244, 32981, 33456, 33873, 33706, 33457, 33204, 32588, 31849, 31702, 32320, 33064, 33211, 32543, 31508], [35967, 42699, 47564, 49207, 42845, 31238, 25491, 27984, 30583, 31036, 32834, 34312, 31588, 25675, 21733, 23655, 29929, 36588, 42225, 46328, 45569, 37737, 28793, 26727, 29441, 30735, 31582, 33953, 34384, 30197, 24229, 22143, 26245, 33060, 38787, 43214, 46072, 43436, 33848, 25694, 26350, 30073, 30815, 32252, 35435, 34904, 29199, 23353, 22988, 28691, 35817, 40553, 43225, 43836, 39156, 30146, 25366, 27968, 31267, 32674, 35130, 36626, 33159, 26308, 21725, 23586, 30198, 36288, 40153, 43588, 44456, 38199, 29209, 27085, 30381, 31509, 31636, 33874, 34550, 30707, 24883, 22012, 25314, 32682, 39088, 42922, 45162, 43022, 34057, 25842, 26388, 30422, 31484, 33044, 36306, 35682, 29589, 23014, 21609, 26433], [0, 0, 17444, 47533, 65535, 65535, 65535, 53105, 49114, 45615, 42356, 44242, 43878, 31403, 8620, 0, 0, 0, 356, 28989, 61460, 65535, 65535, 58828, 46594, 41503, 37828, 39932, 47519, 48157, 32435, 4675, 0, 0, 0, 14060, 47790, 65535, 65535, 65535, 49007, 34779, 30520, 30562, 36379, 45290, 45176, 28489, 2847, 0, 0, 0, 22153, 51083, 65535, 65535, 59493, 43892, 38852, 37195, 36970, 42133, 47359, 40745, 18984, 0, 0, 0, 0, 24737, 58563, 65535, 65535, 61114, 46084, 38351, 33333, 33882, 40736, 44084, 33442, 9819, 0, 0, 0, 8874, 35976, 65535, 65535, 65535, 55931, 42667, 36786, 34577, 38176, 44986, 43618, 26400, 0, 0]], "framecount": 10.0, "time": 1489540200295}
{"dataframe": [[35719, 34356, 33091, 31811, 30992, 31001, 31390, 31552, 31839, 32747, 33536, 33445, 33066, 33275, 33891, 33992, 33491, 33090, 32454, 31164, 30536, 31375, 32543, 33377, 34140, 34328, 33384, 32151, 31996, 32971, 33682, 33318, 32766, 32694, 32358, 31603, 31491, 32202, 32855, 33146, 33317, 33471, 33676, 33610, 32630, 31393, 31581, 33081, 34026, 33638, 32382, 30921, 31112, 34190, 37176, 36368, 32824, 29711, 28005, 27831, 29735, 32853, 35194, 36303, 36851, 36467, 34767, 32804, 31561, 30888, 30438, 30286, 30564, 31207, 32216, 33455, 34251, 34226, 33988, 34138, 34521, 34575, 33688, 31960, 30595, 30369, 30720, 31219, 32242, 33599, 34227, 33828, 33462, 33878, 34262, 33556, 32209, 31342, 31146, 31300], [38335, 35046, 30298, 26347, 24103, 24942, 29201, 32796, 32369, 31591, 34204, 36444, 35182, 34013, 35296, 37255, 38537, 37560, 33512, 29573, 28175, 27915, 28254, 29450, 30042, 30369, 32325, 34207, 33579, 32627, 34475, 37959, 39776, 39070, 36984, 33700, 29348, 26019, 25942, 28679, 31534, 32561, 32101, 31449, 31396, 31728, 32293, 34479, 38570, 41481, 41185, 38636, 33738, 26728, 21850, 22603, 27013, 31645, 35255, 37042, 36298, 33855, 31361, 30787, 33498, 37457, 39148, 38161, 35414, 30700, 25821, 24869, 28628, 33083, 34814, 34242, 33295, 32459, 30831, 28930, 29628, 34142, 39481, 41839, 40323, 36638, 32406, 28126, 25089, 25372, 28684, 31969, 32657, 31238, 30301, 30977, 32790, 36633, 42319, 45267], [30233, 29505, 24433, 26347, 38151, 46637, 44994, 41494, 40254, 36726, 31410, 28489, 27660, 27937, 28951, 27490, 24435, 27906, 36737, 36444, 25577, 21823, 31712, 43100, 48280, 49002, 46013, 39189, 30820, 23965, 20335, 19911, 21995, 25091, 28017, 33386, 41644, 43219, 33673, 26705, 31618, 38758, 41299, 43377, 44017, 38580, 29681, 22038, 17517, 17978, 22716, 27527, 31384, 36756, 43069, 46548, 45242, 40516, 34867, 29742, 25616, 23905, 26399, 32035, 36629, 36191, 30483, 24926, 26221, 33533, 39217, 39017, 35326, 31863, 30387, 31388, 34403, 37575, 39344, 39293, 35921, 28658, 22522, 23269, 27588, 26976, 23015, 25904, 36063, 44455, 48256, 48582, 42993, 34520, 33604, 40171, 37735, 17329, 0, 0], [23599, 18887, 24989, 31856, 32292, 32849, 36529, 36833, 33337, 31139, 30207, 32177, 40564, 45205, 34195, 19304, 17613, 24444, 31601, 41822, 50469, 47454, 35849, 25254, 20896, 24143, 29604, 31202, 32126, 35181, 35678, 32324, 30565, 34109, 39704, 40035, 34684, 32479, 35515, 34759, 27793, 22693, 22613, 24249, 28433, 37118, 44915, 45321, 39861, 33740, 29488, 28631, 31543, 33866, 30349, 23858, 23320, 30169, 36916, 40553, 42881, 41058, 34073, 28850, 27642, 25482, 24664, 30608, 37094, 36527, 34025, 36107, 39161, 37895, 33355, 27334, 20019, 18184, 30976, 50679, 55133, 38228, 19758, 15720, 21907, 32227, 43388, 45284, 35322, 27953, 31951, 38215, 37189, 29683, 19690, 13573, 22491, 45108, 59073, 51674], [37143, 33872, 30316, 28842, 29507, 30272, 29731, 28805, 29864, 32754, 34201, 33374, 33243, 35420, 38043, 38218, 35323, 33034, 34696, 35762, 29654, 21744, 23184, 31562, 35576, 34332, 34000, 34465, 33190, 31929, 32805, 35160, 37247, 37727, 36158, 32997, 29764, 28347, 28701, 29448, 30939, 33368, 33675, 30563, 28852, 32281, 37351, 38904, 36484, 33697, 33690, 35026, 33916, 30364, 28038, 28803, 31011, 32773, 33557, 32728, 30621, 29891, 31956, 34741, 35991, 36154, 36798, 37332, 35723, 32224, 29148, 27989, 28796, 30595, 32051, 32649, 32563, 31858, 30842, 30969, 33820, 37528, 38368, 37288, 36888, 34991, 30480, 27335, 27694, 30100, 32871, 33640, 31363, 28937, 28777, 30020, 32303, 36320, 40533, 42287], [30863, 31254, 32926, 34950, 35635, 34651, 33246, 32236, 31593, 31432, 31983, 32998, 33701, 33580, 33070, 32498, 31471, 30412, 30531, 31910, 33673, 35088, 35556, 35030, 34035, 32750, 31563, 31474, 32282, 32574, 32114, 31740, 31600, 31423, 31479, 32234, 33763, 35609, 36619, 35551, 32686, 30159, 29807, 31293, 33084, 34238, 34234, 32717, 30850, 30694, 32119, 33245, 33570, 33736, 33864, 33844, 33560, 32827, 32038, 31800, 32027, 32624, 33595, 33842, 32577, 31299, 31318, 31704, 31975, 33038, 34496, 34788, 33862, 32961, 32568, 32462, 32696, 33151, 33191, 32547, 31694, 31097, 30928, 31399, 32362, 33286, 34197, 35403, 36264, 35368, 32350, 29314, 29040, 31244, 33133, 33772, 34237, 34258, 33006, 31674], [33283, 38619, 43021, 45932, 42641, 33136, 26861, 28554, 31148, 30931, 32038, 34027, 32300, 27154, 23264, 24327, 29549, 35329, 40401, 45030, 46016, 39595, 30165, 26607, 28681, 29761, 30041, 32849, 35296, 32698, 26126, 22020, 24830, 31696, 37759, 42322, 45564, 44108, 36002, 27795, 26750, 29475, 30292, 31279, 34212, 35136, 30921, 24272, 22004, 26909, 34105, 39305, 43184, 45226, 41521, 32517, 26328, 27257, 30022, 31496, 33944, 35952, 33882, 28111, 22640, 22437, 28282, 35239, 40139, 44286, 46104, 40587, 30353, 25488, 27803, 30218, 31333, 33993, 35847, 33057, 26450, 21364, 23163, 30912, 38561, 42901, 44928, 43575, 36416, 28229, 26488, 28980, 30322, 31915, 34343, 34209, 30785, 26026, 23508, 26819], [0, 0, 16380, 47249, 65535, 65535, 65535, 49668, 41971, 38058, 37110, 41872, 47141, 42433, 22311, 0, 0, 0, 0, 23005, 54697, 65535, 65535, 60626, 45204, 37996, 34841, 37205, 44083, 45392, 34203, 14133, 0, 0, 0, 1839, 28743, 60767, 65535, 65535, 58583, 46329, 37552, 30377, 31112, 39381, 43131, 32349, 10320, 0, 0, 0, 16036, 39141, 61861, 65535, 64029, 50212, 42270, 39517, 38388, 40202, 43855, 40601, 23554, 105, 0, 0, 2664, 21378, 43790, 62991, 65535, 62437, 55445, 48985, 39785, 34008, 36725, 40156, 33316, 14591, 0, 0, 0, 13151, 34203, 56905, 65535, 64312, 50601, 41364, 37611, 35681, 37217, 41586, 41167, 31059, 15064, 533]], "framecount": 11.0, "time": 1489540200405}
{"dataframe": [[31790, 32661, 33559, 33537, 32085, 31049, 33050, 36891, 38396, 36494, 33687, 31130, 28469, 26522, 26399, 28411, 31973, 35125, 36615, 37306, 37404, 36083, 34178, 33067, 32251, 31036, 30032, 29465, 29225, 30352, 32943, 34732, 34734, 34499, 34466, 33617, 32421, 32161, 32740, 33401, 33644, 33003, 31835, 31347, 31739, 32078, 32115, 32275, 32582, 33166, 34202, 34794, 34111, 32965, 32460, 32525, 32555, 32105, 31230, 30969, 32003, 32928, 32600, 32704, 34470, 35918, 35362, 33463, 31231, 29877, 30355, 31546, 32194, 32933, 34051, 34539, 34117, 33445, 32815, 32244, 32057, 32482, 32913, 32270, 30600, 29905, 32022, 35612, 37667, 37466, 35875, 33094, 29870, 27735, 27230, 28140, 30398, 33406, 35634, 36262], [42295, 36130, 29740, 23756, 20874, 23638, 28765, 31660, 32775, 33469, 32901, 32570, 34450, 36525, 38159, 41100, 42582, 39058, 32969, 27503, 22925, 21247, 24740, 30178, 33305, 35048, 36658, 36191, 33732, 32133, 32747, 35212, 38080, 39111, 37645, 34573, 30200, 25233, 22624, 24801, 29804, 33737, 35515, 36087, 35800, 34707, 33431, 33341, 35434, 37915, 37598, 34438, 30841, 27797, 25749, 26294, 29374, 32603, 35032, 36831, 36450, 33574, 31153, 30794, 31636, 33709, 36836, 38980, 38457, 34794, 28975, 24901, 25900, 29742, 32595, 34169, 34557, 32861, 30656, 30317, 31999, 35345, 39420, 41518, 40244, 36737, 31656, 25506, 21406, 22293, 26461, 30470, 33868, 37158, 38905, 37833, 35274, 34167, 35688, 37546], [17718, 36861, 49093, 57852, 60625, 54438, 43152, 31077, 20514, 15451, 18091, 24664, 30380, 33697, 34080, 32210, 31359, 33288, 35899, 37346, 38205, 38244, 35790, 31878, 29720, 29961, 32520, 37522, 38511, 30056, 22681, 25834, 28846, 25180, 26515, 35143, 40398, 42517, 45066, 42494, 36656, 35641, 34790, 27584, 19353, 15352, 16844, 25417, 36501, 42426, 43480, 43330, 42010, 39709, 36623, 30719, 24039, 22448, 25527, 28509, 31122, 34481, 37680, 40883, 42302, 37508, 28061, 20890, 19682, 24875, 34563, 41948, 41943, 38291, 35827, 33588, 31545, 33146, 36788, 35428, 28645, 24964, 26807, 26040, 22248, 26729, 39904, 47580, 43863, 36253, 30927, 28602, 29011, 32166, 37545, 41613, 39530, 32177, 24804, 19729], [37122, 28453, 22846, 19037, 20150, 24009, 28640, 36222, 44557, 46969, 42084, 35108, 30281, 27864, 27216, 27796, 28645, 30125, 33180, 36151, 36224, 33587, 31920, 34415, 39019, 39667, 32836, 21855, 16515, 23367, 35055, 41733, 45289, 46716, 39977, 28366, 22794, 26779, 35748, 38116, 25663, 12646, 17504, 32658, 43451, 50668, 53533, 44708, 29965, 23887, 26999, 28686, 26212, 23763, 23630, 28071, 36348, 41263, 40370, 39268, 38581, 35164, 32150, 31199, 29016, 27617, 28886, 29149, 30274, 34982, 36976, 34459, 34091, 35154, 32918, 31197, 32854, 32514, 29253, 28680, 30302, 31127, 36123, 46089, 48146, 36301, 22878, 18289, 20575, 26570, 34245, 38959, 39130, 37233, 33900, 30813, 31897, 35105, 35253, 34239], [41053, 37830, 33043, 26943, 21924, 21785, 26741, 32922, 37512, 38816, 34909, 28685, 26744, 30270, 35538, 40260, 42928, 41783, 36950, 30388, 24976, 23387, 25573, 28967, 31631, 33121, 33509, 33527, 33861, 34007, 34174, 36092, 39233, 40285, 38022, 34005, 28842, 23394, 21956, 27038, 33290, 34634, 33310, 33934, 34951, 33318, 31277, 32962, 37920, 41155, 39257, 34261, 29964, 27339, 25706, 25480, 27660, 32495, 38549, 40886, 34872, 25922, 25266, 32500, 37468, 38057, 38734, 38493, 35052, 31235, 28903, 26949, 26900, 30441, 34188, 34515, 32475, 30485, 29691, 30736, 33442, 36817, 39678, 40519, 38714, 35240, 30813, 26232, 24190, 26261, 29866, 32234, 33722, 34661, 34144, 32875, 32808, 34605, 36996, 37973], [31560, 31866, 31910, 32497, 33773, 34630, 34489, 33634, 32563, 32014, 32134, 32021, 31731, 32333, 33087, 32616, 31889, 32137, 32725, 33272, 34245, 35038, 34544, 33069, 31655, 30713, 30551, 31553, 33107, 34061, 34101, 33588, 32873, 32139, 31514, 31565, 32783, 34185, 34227, 33107, 32205, 31897, 31865, 32342, 33482, 34559, 34598, 33411, 31846, 30838, 30509, 30633, 31373, 32891, 34645, 35627, 35445, 34616, 33370, 31732, 30718, 30839, 31184, 31817, 33189, 33866, 33125, 32489, 32560, 32791, 33455, 34250, 33956, 32828, 32019, 31606, 31529, 32186, 33342, 34298, 34420, 33226, 31402, 30514, 30910, 31728, 32736, 34192, 35340, 35064, 33843, 32831, 31855, 30768, 30827, 32341, 33600, 33621, 33119, 32504], [33607, 38496, 41366, 43880, 42091, 33488, 26304, 27541, 31016, 31453, 33153, 36335, 35128, 28966, 22853, 21609, 26515, 33897, 39577, 43449, 45470, 41908, 33010, 27282, 28619, 30621, 30286, 31583, 34240, 33111, 27309, 22690, 24562, 30856, 36458, 40581, 44384, 44839, 38013, 28704, 26225, 29456, 30900, 31229, 33964, 35673, 32157, 25622, 22207, 25158, 31606, 37404, 42015, 45304, 43341, 34675, 27363, 27851, 30470, 30471, 31988, 35294, 34707, 29379, 23984, 23081, 27471, 33779, 39056, 43214, 44987, 40716, 31718, 26481, 28204, 30615, 31290, 33469, 35673, 33882, 28556, 23739, 23628, 28535, 34446, 38849, 42822, 44995, 40391, 31006, 26837, 29557, 31264, 30912, 32908, 34886, 31911, 25725, 22617, 25503], [0, 0, 15120, 36485, 55352, 63192, 56618, 45698, 41605, 41554, 39468, 39029, 43667, 44437, 31767, 12548, 0, 0, 0, 13546, 37730, 58837, 64319, 55808, 45474, 38086, 31577, 30913, 40696, 51117, 46998, 26555, 4326, 0, 0, 12305, 29496, 47778, 58995, 56930, 46700, 40025, 39894, 39706, 37275, 37204, 39840, 37421, 23455, 3626, 0, 0, 10854, 36134, 60687, 65535, 65535, 52206, 37564, 30051, 28537, 29092, 31964, 36014, 32260, 17680, 4513, 3812, 13650, 27810, 43323, 56595, 60149, 50757, 37028, 29421, 28361, 31296, 39701, 48874, 46168, 30299, 15473, 8784, 4799, 4187, 14451, 34367, 52850, 60003, 55573, 47716, 42501, 40142, 42131, 48398, 47973, 31516, 9500, 0]], "framecount": 12.0, "time": 1489540200499}
{"dataframe": [[36174, 36029, 35310, 33945, 32570, 31465, 30610, 30076, 30039, 30562, 31362, 32342, 33793, 35381, 36146, 35562, 33770, 31695, 30728, 31071, 31749, 32446, 33182, 33453, 33287, 33081, 32565, 31804, 31805, 33012, 34484, 34877, 33709, 31816, 30574, 30726, 31931, 33238, 34001, 33958, 33028, 32159, 32567, 33437, 33307, 32675, 32381, 32195, 32437, 33473, 33994, 33031, 31767, 31382, 31754, 32588, 33362, 33438, 33272, 33311, 32888, 32175, 32320, 33095, 33501, 33562, 33502, 33021, 32216, 31596, 31290, 31223, 31556, 32370, 33448, 34478, 34977, 34535, 33532, 32681, 32101, 31738, 31794, 32205, 32465, 32389, 32471, 32780, 32681, 32386, 32735, 33394, 33597, 33562, 33482, 33007, 32461, 32464, 32597, 32402], [37241, 35058, 31823, 27411, 23472, 23477, 28098, 33781, 36899, 36857, 35189, 33163, 30865, 29398, 31298, 35960, 39254, 39574, 38421, 35485, 29728, 24214, 23704, 27795, 31859, 33967, 35111, 34739, 32086, 29628, 30623, 34682, 38669, 40743, 40741, 37985, 32235, 25827, 22438, 24334, 29985, 34224, 34137, 32761, 33080, 33357, 32337, 32975, 36470, 38638, 37204, 35881, 36383, 34268, 27670, 22733, 24972, 31060, 34380, 33788, 32466, 32228, 32446, 32613, 33633, 36014, 38342, 39099, 38217, 35687, 31066, 26027, 24548, 27537, 30778, 31545, 31913, 32974, 32850, 31843, 32774, 36293, 39999, 41274, 39455, 35396, 30014, 25010, 23495, 26610, 30933, 32827, 33235, 34088, 34345, 33586, 33278, 33557, 34587, 36894], [17940, 22321, 32729, 43039, 45977, 40487, 34273, 33383, 32780, 28930, 29365, 36364, 40641, 38166, 33060, 27307, 22474, 21817, 24847, 29338, 35375, 40920, 41626, 37983, 34537, 33237, 33582, 35269, 37125, 37630, 35975, 29924, 19144, 11824, 16536, 29391, 41078, 48806, 51646, 45526, 31504, 20940, 24909, 38977, 44199, 32117, 19915, 22597, 29958, 31725, 34220, 38458, 36074, 30021, 30171, 34183, 34454, 32982, 34709, 37763, 37992, 35558, 33403, 31671, 28591, 26553, 28071, 29080, 26971, 26351, 30384, 36774, 41284, 40938, 38608, 38991, 39580, 37352, 35006, 31088, 22085, 14830, 17116, 24718, 31358, 37315, 42778, 45703, 44862, 39870, 34304, 33610, 34343, 30127, 25474, 24340, 21668, 20081, 27373, 37496], [35476, 34750, 29188, 26653, 31658, 32702, 22999, 18559, 32618, 50468, 51994, 40652, 31162, 26825, 24506, 25149, 28853, 32340, 34196, 34726, 33988, 33525, 34571, 35406, 35041, 34728, 33552, 29708, 26053, 26527, 29748, 33612, 39190, 43578, 40840, 33036, 27094, 24925, 26019, 30061, 34775, 38568, 38645, 30317, 21047, 25825, 39378, 43948, 40008, 36837, 31805, 24659, 25235, 32306, 34478, 32519, 33309, 34373, 33028, 32540, 33095, 32080, 30321, 29866, 30914, 33238, 37304, 41450, 40400, 33894, 29340, 28271, 26264, 25591, 29535, 34606, 36762, 33490, 27144, 28208, 38651, 44973, 41231, 35749, 32310, 28737, 26741, 26943, 26724, 26753, 28686, 33468, 41958, 46158, 37416, 27855, 31061, 35105, 30077, 27826], [37050, 35124, 32427, 29222, 26658, 25896, 27697, 31535, 35287, 36865, 36192, 34981, 32945, 28860, 27216, 32697, 39575, 40102, 36415, 33620, 31323, 28486, 27513, 29495, 31742, 32446, 32546, 32388, 31712, 31636, 32854, 34666, 36873, 39067, 39130, 36072, 32094, 29234, 27370, 26665, 27534, 28995, 30761, 33486, 35711, 35695, 34508, 33914, 34743, 37016, 38970, 38247, 34122, 27843, 23260, 24580, 30307, 34412, 34445, 32951, 32419, 32568, 31735, 30753, 33133, 38853, 42483, 40219, 34538, 30105, 27865, 26137, 25751, 28413, 32066, 33937, 34390, 34214, 33177, 32053, 32429, 34993, 38287, 39300, 37146, 34172, 31519, 28034, 25021, 25708, 29381, 32596, 34700, 36072, 35011, 31823, 30471, 32851, 36704, 39152], [31747, 31552, 32315, 33340, 34148, 34354, 33507, 32790, 33252, 33235, 31884, 31272, 32149, 32746, 32451, 32250, 32417, 32535, 32600, 32889, 33516, 34079, 33844, 32997, 32659, 32986, 32883, 32255, 32383, 33025, 32388, 30949, 30885, 32134, 33377, 34506, 35066, 34061, 32407, 31701, 31649, 31669, 32317, 33537, 34428, 34644, 34054, 32491, 30679, 29824, 30335, 31733, 33385, 34872, 35664, 35105, 33386, 31770, 31144, 31265, 31743, 32625, 33788, 34461, 33869, 32527, 31769, 31592, 31149, 31144, 32654, 34466, 34680, 33664, 33007, 32978, 32925, 32840, 33012, 33140, 32700, 31756, 31069, 31194, 31878, 32741, 33618, 33993, 33448, 32655, 32602, 33143, 33547, 33718, 33798, 33636, 33116, 32228, 31158, 30514], [31385, 36755, 41450, 45404, 44730, 36399, 27109, 26077, 30158, 31704, 32175, 34092, 33911, 29478, 24091, 22908, 27485, 34086, 39143, 42922, 45274, 42212, 32971, 26139, 27513, 30734, 31097, 32366, 34731, 33453, 27995, 23154, 23984, 30009, 35850, 39500, 43353, 45614, 40429, 29847, 24243, 26596, 30317, 32916, 36023, 37051, 33013, 26291, 22193, 23742, 29251, 35351, 40740, 45047, 45217, 38034, 28563, 25908, 29097, 31362, 32720, 34978, 35188, 30979, 24745, 21938, 25443, 32098, 37727, 41769, 44403, 42735, 35019, 27842, 28164, 31554, 32093, 32648, 34857, 34124, 28403, 22111, 21310, 26946, 34256, 39834, 44340, 46541, 41711, 31350, 25726, 28346, 31285, 31442, 33067, 35099, 32825, 27002, 22830, 24023], [0, 0, 7124, 29727, 53704, 64144, 58047, 47660, 43850, 44426, 44669, 45825, 45868, 37406, 21130, 7342, 1489, 663, 3592, 13765, 33514, 55697, 64550, 55159, 42096, 39029, 45844, 54644, 53850, 38220, 18187, 5192, 0, 1809, 11366, 21324, 28785, 43918, 65535, 65535, 59680, 28016, 8314, 6905, 22294, 45187, 57715, 51877, 34256, 15801, 5467, 4284, 10184, 27035, 51256, 62467, 49174, 27861, 20479, 28793, 42088, 53506, 58664, 53112, 37776, 19352, 5166, 0, 0, 3169, 24470, 52400, 65535, 57680, 45113, 41245, 39640, 37195, 42428, 50879, 46093, 27760, 8899, 0, 0, 0, 21390, 49189, 65535, 65535, 54109, 41437, 35629, 33914, 35807, 42228, 47393, 43558, 27584, 4481]], "framecount": 13.0, "time": 1489540200592}
{"dataframe": [[32344, 32556, 32544, 32310, 32391, 32915, 33214, 32968, 32850, 32601, 31083, 30019, 33028, 38723, 40726, 36864, 31832, 29011, 26957, 25251, 25926, 28941, 32750, 36677, 39384, 39572, 38129, 36272, 34087, 31828, 30079, 29056, 28579, 28297, 28540, 30568, 34098, 36026, 34988, 34063, 34904, 35125, 34196, 33809, 33270, 32059, 31857, 32147, 31310, 30801, 31560, 31850, 31689, 32460, 33465, 33925, 34290, 34165, 33218, 32597, 32760, 32781, 32569, 32755, 32964, 32719, 32561, 32561, 32145, 31870, 32356, 32868, 33249, 33766, 33202, 31567, 31306, 32650, 33334, 33268, 33634, 33946, 33986, 34206, 33581, 31708, 30457, 30528, 30641, 30784, 32057, 34048, 35298, 35430, 34988, 34047, 32728, 31883, 31781, 31901], [38137, 36406, 33654, 30770, 26905, 25185, 28844, 33459, 33804, 32935, 34829, 36344, 33518, 28592, 27191, 31208, 36324, 38213, 37720, 36602, 34282, 31450, 30517, 31510, 32155, 31817, 31549, 30720, 27934, 25276, 26887, 32858, 39061, 42975, 44527, 42104, 34935, 27862, 25582, 25987, 26414, 28326, 31291, 32794, 33288, 33300, 32266, 32924, 37280, 41214, 40848, 37600, 33614, 29196, 25036, 23147, 25280, 30291, 34744, 36686, 36306, 34410, 32334, 31229, 31687, 34449, 38747, 41008, 38508, 32883, 27622, 24196, 23356, 26824, 33200, 37045, 36708, 35985, 35482, 32265, 28449, 29061, 33065, 36283, 38262, 38908, 36234, 31342, 28295, 28724, 30410, 30728, 30246, 30855, 31663, 30968, 30067, 31547, 35717, 39966], [40358, 38801, 41177, 47291, 46324, 32498, 19071, 20308, 29119, 30863, 25999, 25652, 33850, 42259, 42587, 38318, 35808, 32636, 27480, 27033, 32222, 34861, 31925, 28368, 28461, 32073, 34958, 34389, 35602, 41923, 44488, 37541, 28877, 22516, 16120, 16825, 29260, 40438, 40914, 38144, 37929, 37625, 37153, 38754, 41249, 40191, 30534, 14980, 6629, 13575, 29295, 42579, 47334, 45828, 45166, 44033, 34300, 21499, 19773, 27079, 32031, 34336, 37571, 38641, 35408, 30655, 27049, 25907, 27482, 30467, 34429, 39493, 42407, 39956, 34821, 30552, 26554, 23514, 25131, 31669, 38129, 40286, 39671, 38331, 34321, 30062, 30254, 29084, 21719, 17731, 23923, 33843, 41611, 46795, 48601, 46511, 41216, 34254, 28707, 24125], [32152, 32912, 31281, 33506, 33992, 29974, 29740, 32946, 32199, 33371, 42418, 47023, 38187, 25981, 18712, 15956, 22712, 38247, 46318, 42060, 37983, 35490, 29778, 28903, 33513, 31013, 25540, 29485, 34107, 30279, 28708, 32864, 34005, 37655, 48798, 49820, 33773, 21459, 22306, 24743, 25475, 27223, 25942, 26000, 37715, 52026, 52036, 41024, 31014, 24518, 22059, 25000, 29518, 31551, 32216, 34931, 39916, 41169, 35024, 28483, 27792, 29189, 29590, 31322, 33955, 34950, 35170, 35338, 34170, 33599, 35651, 35929, 31497, 26635, 24385, 25479, 32131, 41050, 43349, 37613, 31912, 31703, 34036, 33144, 26136, 16286, 15148, 30804, 51155, 57289, 49406, 39155, 29930, 21396, 17289, 19501, 24170, 26921, 31024, 42914], [38717, 35520, 31039, 27434, 27147, 30681, 33731, 31919, 28585, 29630, 33387, 34786, 33625, 32482, 33052, 35638, 38298, 38876, 37537, 34615, 29769, 25226, 24825, 28398, 32035, 33739, 33651, 31846, 30246, 31323, 34002, 35879, 37292, 39883, 42145, 39864, 33411, 27703, 23749, 21193, 23219, 28603, 31942, 34296, 38205, 39066, 34644, 31783, 35106, 40218, 41882, 39423, 33872, 26972, 21809, 20945, 24325, 29304, 33254, 35717, 37084, 37099, 35737, 34445, 35153, 36891, 36675, 35337, 35771, 35356, 29513, 21671, 20089, 25647, 31602, 34697, 37152, 39028, 38037, 34776, 32075, 31892, 34076, 36308, 36723, 35634, 33149, 28752, 24398, 24011, 28591, 34739, 38442, 37433, 32143, 27432, 28264, 33031, 37183, 39800], [30596, 31054, 31905, 33432, 34991, 35360, 34265, 32980, 32798, 33142, 32929, 32702, 33010, 32844, 31797, 31072, 31102, 31023, 31002, 32164, 34255, 35967, 36465, 35295, 32903, 30947, 30412, 30968, 32098, 33104, 33414, 33487, 33589, 32745, 31055, 30566, 31888, 33387, 34275, 34735, 34369, 33357, 32665, 32328, 32042, 32184, 32643, 32834, 32701, 32089, 31129, 31103, 32357, 33460, 34008, 34642, 34625, 33401, 32418, 32535, 32674, 32287, 32168, 32561, 32684, 32236, 31889, 32083, 32568, 32900, 32728, 32391, 32637, 33358, 34061, 34557, 34385, 33478, 32726, 32520, 32217, 31438, 30628, 30332, 30707, 31789, 33489, 35144, 35819, 35285, 34113, 32981, 32198, 31641, 31214, 31339, 32223, 32925, 32594, 32023], [29497, 35476, 40452, 44781, 45469, 38408, 28380, 25596, 29571, 31924, 32403, 34973, 36311, 31502, 23558, 20390, 24687, 31689, 37493, 42518, 46055, 44168, 36022, 28480, 27344, 29049, 29673, 31542, 34873, 35181, 30206, 23540, 21983, 27333, 34265, 39434, 43875, 45909, 41273, 31748, 26036, 27514, 30131, 30782, 32569, 35058, 34186, 29341, 24439, 24136, 28963, 35051, 39653, 43098, 43882, 38357, 29595, 26529, 29581, 31670, 32317, 34492, 35549, 32183, 25868, 21649, 23902, 30978, 37592, 42123, 45210, 43819, 35509, 26909, 26253, 30457, 32524, 33142, 34543, 34504, 30573, 24167, 21110, 25293, 32905, 38879, 43173, 45957, 43387, 34388, 26754, 26794, 30053, 31753, 33123, 33723, 31694, 27954, 24378, 23947], [0, 0, 4141, 27874, 52408, 65535, 65535, 50890, 39587, 36134, 34781, 41650, 54701, 50478, 27362, 9437, 0, 0, 0, 13863, 38237, 57059, 64236, 55673, 44942, 44466, 42557, 33530, 31585, 38655, 41138, 32877, 17523, 4788, 4888, 13858, 21493, 32340, 49745, 57420, 48182, 38495, 35302, 31520, 32630, 44099, 52756, 47656, 31947, 12133, 0, 0, 9432, 24010, 41920, 58113, 58385, 46125, 40814, 43380, 41430, 38481, 42330, 44526, 34691, 16691, 959, 0, 0, 13242, 32180, 52674, 64269, 57849, 46642, 46492, 47096, 37295, 28981, 32719, 40143, 37405, 20696, 719, 0, 0, 12824, 35135, 58437, 65535, 62342, 48388, 37481, 32331, 33767, 42478, 53102, 51521, 29915, 2907]], "framecount": 14.0, "time": 1489540200686}
{"dataframe": [[32115, 32070, 31447, 31375, 32502, 33477, 33477, 33149, 32968, 33198, 33912, 34256, 33646, 32795, 32261, 31817, 31515, 31610, 32012, 32575, 33008, 33096, 33322, 33718, 33275, 32110, 31688, 32288, 33040, 33666, 34248, 34463, 33825, 32344, 30968, 30625, 30988, 31384, 32178, 33787, 35034, 34700, 33798, 33370, 32485, 31254, 31440, 32701, 33295, 33278, 33086, 32429, 31951, 32151, 32362, 32664, 33321, 33528, 33302, 33338, 33149, 32651, 32720, 32620, 31513, 31283, 32860, 33848, 33250, 32813, 32893, 32581, 32340, 32704, 33105, 33350, 33436, 32859, 31963, 31892, 32654, 33273, 33293, 32884, 32465, 32571, 33064, 33108, 32632, 32437, 32636, 32583, 32163, 32061, 32702, 33304, 32462, 30707, 31530, 36117], [41513, 40408, 38077, 34079, 27814, 22640, 23302, 28633, 32877, 34044, 34028, 33127, 31075, 29906, 31786, 36428, 41109, 42342, 38995, 33731, 29304, 25569, 23538, 26611, 33153, 36713, 35954, 34095, 31398, 27918, 27110, 30439, 35482, 40201, 42919, 41312, 36044, 30690, 26722, 24369, 25993, 31049, 33583, 32136, 31905, 33194, 32236, 31489, 34156, 36856, 37872, 39376, 39385, 35260, 29767, 25998, 25106, 27651, 30887, 31778, 32032, 32813, 31736, 29923, 32023, 37748, 42265, 43076, 40513, 35456, 29592, 24746, 22532, 24722, 30006, 33440, 33293, 32729, 33053, 32595, 32005, 34183, 39046, 42523, 41401, 36593, 31080, 26609, 23614, 23442, 27221, 32547, 35953, 36861, 35735, 33043, 31118, 32218, 34959, 35770], [17092, 12411, 17806, 28781, 36522, 40089, 40914, 40337, 41520, 43342, 41466, 37713, 36928, 36365, 28385, 14566, 7932, 15283, 27141, 33270, 38118, 49618, 59079, 51346, 31865, 18150, 14307, 18538, 32133, 46428, 49569, 43731, 35297, 25373, 17978, 17901, 22957, 29739, 36896, 40629, 39145, 37257, 38015, 38347, 36927, 36362, 35462, 29459, 21533, 21937, 29970, 33710, 31081, 30281, 32935, 35228, 35843, 34153, 31587, 32684, 37019, 39293, 41205, 47950, 49600, 30148, 1884, 0, 12356, 28884, 41198, 53307, 54130, 42328, 34433, 34908, 35153, 34661, 36392, 36035, 29849, 21401, 15866, 15041, 19473, 29251, 40879, 49078, 51582, 48465, 40951, 32284, 25412, 21665, 22668, 28585, 35175, 37109, 33496, 28328], [53617, 46107, 28246, 23195, 29833, 33290, 34888, 37216, 32981, 26206, 27500, 31766, 30226, 27364, 30920, 40235, 46018, 40468, 31159, 31122, 34077, 25537, 15663, 24117, 41182, 46203, 42623, 38700, 30370, 21704, 22308, 27845, 31603, 35701, 39206, 38497, 36624, 35940, 33626, 30545, 29917, 30073, 29440, 30036, 30927, 29287, 29865, 39876, 51034, 45684, 26124, 12268, 12401, 23624, 41816, 53315, 48409, 39065, 35380, 30614, 23163, 20624, 21930, 21100, 24025, 39436, 55621, 53433, 37477, 24428, 19024, 23328, 37617, 46826, 39401, 27050, 22636, 22963, 24293, 29884, 38734, 42924, 39162, 34750, 35479, 36347, 32965, 29295, 28486, 29128, 30247, 31519, 32338, 33129, 33994, 33733, 32527, 32445, 34151, 35948], [41432, 40655, 36123, 29197, 23530, 22294, 25333, 29916, 34315, 37545, 37191, 32992, 28874, 27928, 31015, 37633, 43118, 42495, 37806, 33631, 29685, 24974, 22883, 25769, 30662, 34207, 35675, 34716, 32097, 30654, 31891, 34776, 38050, 40284, 39694, 36302, 31828, 27416, 24353, 24741, 28421, 32997, 36934, 37992, 34007, 28672, 27767, 30961, 35110, 38909, 40270, 37755, 34439, 33285, 32023, 28195, 24892, 26168, 30604, 33776, 33889, 32459, 31577, 31947, 33590, 36716, 40090, 41192, 39268, 35190, 29634, 24327, 22395, 24909, 29183, 32471, 34926, 36751, 36170, 33163, 31463, 33817, 38020, 39974, 38377, 34717, 30752, 27253, 24863, 25263, 28942, 32893, 34566, 35202, 35711, 34558, 31998, 30973, 33005, 36277], [32280, 32960, 33151, 33049, 33693, 34998, 35114, 33123, 30882, 30370, 31055, 31689, 32458, 33557, 34122, 33906, 33492, 32907, 32235, 32066, 32332, 32736, 33286, 33356, 32718, 32465, 32753, 32650, 32589, 33213, 33441, 32761, 32269, 32081, 31539, 31490, 32636, 33684, 33828, 33828, 33711, 33126, 32835, 32927, 32463, 31917, 32346, 33013, 32915, 32497, 32140, 31643, 31414, 31956, 33039, 34213, 34857, 34457, 33555, 32890, 32308, 31833, 32021, 32681, 32941, 32484, 31723, 31138, 31229, 32466, 34287, 35273, 34774, 33233, 31779, 31644, 32499, 33005, 33201, 33544, 33261, 32150, 31406, 31446, 31556, 31816, 32751, 33837, 34449, 34546, 33882, 32785, 32312, 32412, 32367, 32495, 33054, 33144, 32305, 31393], [28624, 35254, 40229, 44182, 46362, 41723, 31128, 24684, 26325, 29201, 30588, 33407, 35604, 33088, 27306, 23562, 25486, 31557, 37389, 41180, 43762, 43322, 36394, 27302, 25456, 29796, 32075, 32542, 34973, 35987, 31447, 24317, 21334, 25149, 32188, 38369, 42842, 45323, 43028, 34628, 26782, 26700, 30664, 32346, 33068, 34508, 33700, 28813, 23153, 22542, 28083, 34773, 39257, 42583, 44348, 40777, 32470, 27571, 29466, 31586, 31138, 32314, 34460, 32667, 27135, 22930, 23630, 28513, 34975, 41318, 46152, 46271, 38916, 28889, 25419, 28483, 30880, 31732, 33732, 34762, 31847, 26327, 22893, 25090, 31269, 37402, 42202, 45385, 43543, 34953, 26880, 26813, 30578, 31815, 32469, 34370, 34206, 29954, 24216, 22338], [0, 0, 0, 12339, 37167, 60467, 65535, 65246, 54647, 44905, 38136, 38126, 43386, 43294, 31788, 13545, 0, 0, 0, 10516, 33826, 58180, 65535, 64154, 47828, 38564, 35762, 32842, 34599, 44169, 49619, 38546, 16299, 0, 0, 0, 11755, 32128, 53003, 61622, 54406, 44989, 44105, 47764, 50165, 48816, 42624, 33310, 20209, 2782, 0, 0, 5768, 19899, 38516, 59258, 65535, 65388, 55042, 44991, 35087, 28860, 31402, 38704, 38481, 24290, 5383, 0, 0, 5818, 27935, 54789, 65535, 65535, 48517, 36860, 35055, 37022, 41478, 46578, 44208, 30735, 12110, 0, 0, 0, 15154, 36533, 56941, 65535, 60225, 46597, 37994, 36515, 37535, 39975, 43729, 43198, 30929, 9154]], "framecount": 15.0, "time": 1489540200780}
{"dataframe": [[39432, 37708, 33974, 30969, 28040, 26257, 27095, 29149, 31255, 33595, 35633, 37100, 38234, 38163, 36469, 34379, 32356, 29954, 27999, 27582, 28372, 29552, 30908, 32753, 35171, 37167, 37443, 36152, 34656, 33794, 33464, 33157, 32336, 30874, 29072, 27592, 27699, 29876, 32700, 35058, 37038, 37844, 36834, 35199, 33584, 31634, 30247, 30361, 31127, 31542, 31687, 31924, 32478, 33240, 33646, 33629, 33669, 33524, 32892, 32591, 32907, 32922, 32842, 33483, 33745, 32648, 31515, 31207, 31131, 31495, 32541, 33421, 34025, 34708, 34611, 33338, 32235, 32098, 32075, 31655, 31597, 32382, 33266, 33503, 33454, 33510, 33190, 32313, 31684, 32012, 32974, 33502, 33163, 32790, 32880, 32769, 32294, 32284, 33003, 33685], [34012, 32416, 32219, 32161, 31336, 30327, 31281, 35120, 38143, 36881, 33517, 30678, 27567, 25033, 26424, 31608, 36651, 39353, 40050, 38546, 34845, 31105, 29521, 29785, 30418, 30863, 31202, 31392, 31111, 29755, 28303, 30091, 35723, 40688, 41991, 40755, 37228, 31321, 26322, 25700, 28787, 31914, 32207, 30775, 30943, 32422, 32063, 30757, 32506, 37091, 40553, 40675, 37468, 32726, 29527, 28159, 26985, 27450, 30765, 33832, 34441, 33438, 30607, 27109, 28459, 36080, 42491, 42380, 39395, 37130, 33497, 27209, 22374, 23481, 28793, 32777, 33764, 33966, 34095, 33322, 32290, 32916, 35872, 38949, 39323, 37196, 34229, 30387, 26117, 24530, 27341, 31478, 33521, 34086, 34352, 33394, 31575, 31250, 33235, 36116], [26876, 31415, 37749, 38731, 34617, 32070, 32052, 31715, 32595, 34125, 31997, 29133, 32350, 39650, 42517, 36883, 27515, 22476, 24208, 28908, 32407, 33185, 32824, 34180, 36470, 36430, 36066, 39724, 43616, 41172, 33885, 24860, 14775, 9992, 16000, 27852, 41261, 55321, 60014, 46756, 27713, 20105, 22591, 26449, 31105, 35907, 37192, 35942, 33727, 29506, 26099, 27951, 34053, 38772, 36479, 29413, 27877, 32813, 33376, 29632, 32082, 39530, 44274, 45753, 41409, 28208, 16084, 14783, 19536, 25260, 33554, 41774, 44886, 43874, 41203, 36447, 30998, 28741, 30321, 32105, 31199, 28802, 28053, 29306, 30193, 30695, 33148, 36842, 37873, 34933, 31929, 32757, 35251, 35475, 34832, 35140, 33614, 29896, 28047, 28976], [35692, 32641, 29048, 28060, 30491, 37099, 45045, 42547, 26775, 15835, 20541, 29485, 35293, 40667, 40870, 34186, 31907, 36158, 36766, 34050, 33158, 30096, 26366, 29639, 34073, 31184, 27911, 30343, 32840, 32926, 34343, 38512, 43352, 42719, 33686, 25015, 21923, 18755, 20969, 38639, 55011, 49355, 34312, 26477, 21248, 19654, 27223, 33916, 34606, 37982, 42864, 41080, 34002, 26915, 24418, 29045, 34306, 33633, 31917, 34566, 39863, 44200, 40486, 25245, 11236, 12054, 24436, 38775, 48544, 49359, 43534, 37800, 33048, 27574, 25155, 28034, 30777, 29063, 25202, 24358, 30614, 40215, 43117, 39150, 37194, 37248, 33922, 29700, 28634, 29401, 30149, 30327, 30005, 29742, 29484, 31168, 36819, 41632, 40554, 37047], [37880, 37026, 34983, 32245, 28689, 26393, 28383, 33357, 35686, 33146, 30133, 30076, 30631, 30092, 31500, 35961, 39189, 39237, 39262, 39018, 34384, 26972, 23306, 25202, 28972, 31902, 33740, 34063, 32888, 31582, 31159, 32794, 37110, 40680, 40117, 37678, 35254, 30527, 24911, 24068, 27760, 30345, 30615, 31631, 33688, 34650, 34214, 34108, 35904, 38719, 39532, 37477, 34671, 31635, 27282, 23662, 24563, 29613, 34630, 36426, 34382, 30380, 28493, 30838, 34940, 38452, 41158, 40980, 36734, 32692, 31563, 29757, 25766, 23505, 25275, 29593, 33978, 35999, 35299, 34303, 34426, 35056, 36283, 37835, 37884, 36084, 33337, 29164, 24847, 24569, 28550, 32447, 34686, 35736, 34378, 31716, 30954, 31655, 32684, 35427], [31137, 31446, 32172, 33359, 34711, 35296, 34426, 32946, 32194, 31972, 31673, 31865, 32680, 33152, 33041, 32932, 32883, 32502, 31921, 31730, 32046, 32721, 33789, 34492, 33878, 32762, 32427, 32591, 32733, 33203, 33851, 33659, 32223, 30468, 29696, 30500, 32431, 34301, 35201, 35066, 34099, 32805, 32120, 32311, 32735, 32910, 32863, 32754, 32508, 31871, 31043, 30806, 31758, 33478, 34802, 35151, 34711, 33643, 32340, 31432, 31022, 31228, 32506, 34140, 34458, 33279, 32011, 31537, 31717, 32136, 32518, 32989, 33543, 33605, 33313, 33465, 33541, 32845, 32511, 33166, 33380, 32457, 31335, 30673, 30730, 31677, 32845, 33605, 34386, 35146, 34813, 33454, 32443, 32391, 32820, 33003, 32482, 31605, 31013, 30729], [26768, 33829, 39465, 43539, 45418, 41261, 31619, 25532, 27580, 31151, 32329, 34218, 36092, 33856, 27492, 21629, 21973, 28766, 35866, 40099, 43785, 45600, 40093, 30024, 25832, 28949, 31581, 32168, 34001, 35198, 32271, 26228, 21761, 23291, 30094, 37163, 41831, 44845, 44489, 37702, 29090, 26752, 29185, 30628, 32063, 34593, 34356, 29576, 23663, 22010, 26750, 33903, 39223, 43287, 46240, 43517, 33905, 25922, 25993, 28964, 30216, 32446, 35277, 34246, 29204, 24572, 24585, 29293, 34730, 38589, 42166, 44433, 40450, 31203, 26129, 28361, 30952, 31535, 33646, 35839, 33636, 27432, 22599, 23810, 29723, 35433, 39502, 43389, 44621, 38734, 29841, 27210, 30129, 31738, 32554, 34866, 34946, 29946, 23183, 20734], [0, 0, 2034, 20698, 44033, 65535, 65535, 65535, 46085, 31112, 22424, 20440, 30328, 43696, 43363, 26861, 7067, 0, 0, 14016, 33779, 51721, 62126, 61245, 52319, 41978, 33498, 29550, 33001, 41357, 46257, 39354, 20682, 1818, 0, 4244, 19778, 35084, 48004, 55650, 54351, 47054, 40338, 37083, 37610, 41160, 44524, 41627, 28013, 10536, 2935, 7306, 14097, 19315, 28595, 44263, 56118, 53901, 43831, 38377, 39203, 42525, 47427, 50636, 43865, 24199, 2723, 0, 0, 5684, 20642, 41843, 61231, 65379, 54654, 45271, 43639, 40476, 34608, 34648, 38392, 34613, 20983, 6618, 711, 4366, 13726, 28191, 48011, 63945, 63573, 49726, 36376, 29763, 29104, 34638, 42877, 45147, 35961, 18974]], "framecount": 16.0, "time": 1489540200905}
{"dataframe": [[33532, 32632, 31884, 31706, 31671, 31945, 33060, 34196, 34347, 33885, 33114, 31938, 31174, 31625, 32761, 33644, 33969, 33744, 32996, 32191, 31880, 31794, 31559, 31756, 32863, 34048, 34238, 33632, 33197, 33080, 32658, 32037, 31962, 32354, 32694, 33036, 33158, 32586, 32178, 32866, 33435, 32748, 32123, 32575, 32938, 32637, 32629, 33167, 33604, 33621, 33267, 32734, 32218, 31739, 31440, 31767, 32770, 33580, 33572, 33418, 33682, 33600, 32551, 31525, 31855, 32917, 33000, 32337, 32348, 32825, 32911, 32887, 33100, 33338, 33484, 33298, 32525, 31696, 31549, 32013, 32579, 32959, 33273, 33906, 34527, 33980, 32378, 31464, 31769, 32152, 32393, 32939, 33053, 32262, 31790, 32469, 33450, 34028, 34411, 34251], [38308, 38940, 37464, 33851, 29570, 26931, 27013, 28997, 31027, 32042, 32759, 33465, 32926, 31355, 31399, 34279, 37638, 39021, 38616, 36757, 32781, 28246, 26884, 29421, 31927, 31413, 29943, 30265, 31149, 30761, 30705, 33259, 37755, 41441, 41916, 39161, 35554, 31868, 26546, 22073, 23803, 29706, 32901, 33400, 34770, 35301, 33039, 31056, 32147, 35403, 38566, 39731, 38286, 35290, 31649, 27523, 24773, 25922, 29448, 31676, 32533, 33474, 33537, 32252, 31956, 34686, 39085, 41481, 40019, 36278, 31995, 27193, 23453, 24324, 28940, 32122, 33204, 35140, 36413, 34364, 31556, 31543, 34100, 36907, 38040, 37112, 34940, 31835, 28074, 25913, 27292, 30330, 32644, 34718, 35994, 34375, 31441, 30247, 30642, 32673], [30429, 31761, 33030, 33357, 31797, 29821, 30980, 34033, 34197, 34418, 39911, 43021, 35392, 27492, 30440, 34546, 30502, 27234, 30737, 32963, 30111, 28001, 28408, 27776, 27703, 33161, 42483, 49222, 49887, 44497, 35358, 26374, 20134, 17303, 17944, 21260, 26404, 33629, 41799, 46651, 45404, 40860, 37003, 33813, 30085, 27107, 26494, 27603, 28949, 31225, 36027, 40088, 36885, 27207, 20683, 23492, 31448, 37642, 40482, 41578, 41356, 40311, 39806, 37945, 30612, 20134, 14509, 16049, 20972, 28079, 38306, 49266, 53816, 46107, 34047, 32042, 34989, 27994, 18803, 21997, 29011, 29261, 30286, 35955, 38792, 38026, 38185, 38094, 36104, 33616, 31201, 29564, 27927, 23974, 22481, 29830, 39929, 44039, 43902, 41041], [34169, 28917, 22692, 23056, 31038, 38205, 38413, 35601, 36943, 39994, 34798, 23151, 19787, 27118, 32324, 31668, 31247, 33282, 41341, 55618, 57711, 34252, 7389, 5201, 20724, 32394, 37264, 40265, 40016, 37087, 35060, 34243, 33981, 34056, 33293, 31866, 30965, 30161, 29161, 29175, 30538, 32374, 34308, 35880, 36331, 35571, 33642, 31635, 32039, 34212, 33580, 28376, 24453, 29480, 39495, 41725, 35689, 32178, 32140, 29703, 27074, 27582, 28786, 31919, 39416, 43950, 39536, 33082, 31093, 31402, 30321, 24977, 19518, 26311, 40938, 42039, 32845, 35010, 42377, 37714, 30308, 30847, 30569, 27047, 27638, 29700, 28272, 27974, 34212, 45163, 50534, 40652, 24124, 18780, 24561, 29758, 32277, 34192, 34541, 36404], [38427, 38579, 37361, 35945, 31413, 25358, 24427, 28668, 31903, 32385, 32473, 32847, 33623, 34754, 34539, 33316, 34239, 37233, 38528, 36215, 31536, 26867, 25041, 27893, 33495, 37084, 36032, 32086, 28912, 28450, 29577, 31508, 35528, 40189, 41281, 38675, 35543, 32107, 27776, 25505, 26973, 29372, 31604, 34609, 35484, 32171, 28937, 29385, 32466, 36893, 41049, 41776, 38333, 33376, 29332, 27132, 27044, 28467, 30015, 30941, 31571, 32212, 32773, 33100, 33463, 34859, 37406, 39449, 39865, 38348, 33932, 27384, 22656, 23059, 27777, 32626, 34295, 33633, 33576, 35054, 36104, 34951, 33424, 34486, 36908, 36904, 34068, 30894, 28269, 26503, 27290, 30440, 33639, 36126, 37270, 34757, 29371, 26613, 29500, 34916], [30776, 31625, 33144, 34433, 34967, 34874, 34508, 34136, 33523, 32386, 31411, 31357, 31675, 31836, 32240, 32562, 32084, 31542, 31855, 32723, 33770, 34906, 35726, 35512, 33715, 31232, 30125, 30861, 31975, 32725, 33401, 33617, 32871, 31873, 31591, 32069, 32849, 33545, 34004, 34165, 33741, 32639, 31615, 31656, 32704, 33714, 34034, 33729, 32678, 31138, 30386, 30994, 32055, 32821, 33449, 34299, 35130, 35049, 33701, 31950, 30889, 30986, 32066, 33366, 33927, 33408, 32375, 31753, 31955, 32400, 32388, 32381, 33040, 33692, 33546, 33137, 33168, 33500, 33707, 33510, 32980, 32409, 31682, 30815, 30536, 31100, 31933, 32815, 33775, 34550, 35074, 35428, 35249, 33929, 31553, 29683, 29951, 31583, 32564, 32529], [25024, 32224, 38134, 42918, 46515, 44514, 35343, 27382, 27617, 30412, 30181, 30809, 33825, 34275, 29813, 23853, 22360, 27488, 34543, 39563, 43708, 46085, 41803, 32069, 26203, 27679, 30131, 30828, 32849, 35048, 33402, 27899, 22808, 23185, 29364, 36325, 40949, 44407, 45308, 39162, 29288, 25751, 28817, 30589, 31165, 34352, 36431, 32673, 25498, 21309, 23537, 29928, 36623, 42344, 46450, 45391, 37132, 28612, 27567, 30168, 30329, 30561, 32987, 33676, 29806, 24029, 22293, 27077, 34206, 39717, 44069, 46595, 42731, 32479, 25285, 26693, 30062, 30943, 32908, 35437, 33837, 28318, 23390, 23282, 28525, 35200, 40163, 43953, 45260, 39709, 29984, 26139, 29495, 31907, 31909, 33444, 34616, 31397, 25123, 21436], [5001, 2168, 8727, 19843, 35811, 54057, 61665, 51803, 36947, 31567, 35255, 39022, 38427, 37676, 38046, 31832, 18812, 9817, 8543, 11858, 21663, 37877, 50796, 52424, 47255, 43994, 42676, 39490, 37038, 37749, 36901, 30868, 21540, 12107, 6904, 9508, 18149, 30168, 45121, 56646, 55670, 46311, 39814, 36608, 33354, 33594, 37401, 37642, 30861, 20308, 11504, 8780, 12659, 21398, 34287, 48584, 56250, 52239, 42663, 36197, 34074, 34468, 36923, 39558, 38480, 30841, 18971, 10032, 8478, 12936, 21465, 34076, 48342, 56456, 52925, 43511, 37417, 35223, 34430, 36854, 40875, 38224, 26177, 12732, 5913, 7201, 15435, 28805, 43514, 53762, 54584, 47654, 40447, 36709, 34919, 34507, 35206, 35307, 33986, 29453]], "framecount": 17.0, "time": 1489540200983}
{"dataframe": [[32974, 31551, 31259, 31614, 31903, 32578, 33450, 33508, 32990, 32662, 32332, 32144, 32776, 33670, 33903, 33719, 33384, 32848, 32479, 32085, 31180, 30743, 31781, 33154, 33568, 33612, 33824, 33562, 32905, 32779, 33197, 33513, 33409, 32691, 31607, 31023, 31182, 31443, 31717, 32704, 34418, 35711, 35690, 34552, 32754, 30727, 29531, 30199, 32218, 33886, 34272, 33837, 33271, 32756, 32382, 32366, 32613, 32363, 31208, 31311, 34710, 37597, 35495, 31725, 30969, 31450, 30819, 30620, 31702, 32744, 33161, 33183, 33241, 34043, 34907, 34249, 32710, 32072, 32076, 31810, 31661, 31566, 31128, 32177, 35922, 38922, 37829, 33945, 29402, 25404, 24265, 27025, 31510, 35470, 38282, 39665, 39416, 37699, 34778, 31246], [37126, 40771, 39958, 36155, 31510, 26261, 23512, 26501, 31719, 34333, 35126, 35127, 32759, 29588, 29393, 32569, 36927, 40029, 39992, 37385, 34057, 30071, 26076, 25290, 28265, 31316, 32795, 33845, 33904, 32127, 30088, 29954, 33085, 38713, 42878, 42603, 39149, 34227, 28053, 22777, 21743, 24583, 28087, 31141, 34447, 37170, 37643, 36280, 35363, 35922, 36908, 37496, 36945, 33729, 28401, 24194, 23574, 26867, 32079, 35523, 35771, 34845, 33929, 32226, 30600, 31733, 35898, 39728, 40187, 37543, 33528, 29066, 25095, 23809, 26755, 31672, 34575, 35003, 35081, 34742, 32770, 31428, 34234, 38659, 38581, 34223, 30361, 27766, 25727, 26920, 32604, 38585, 40293, 38263, 35137, 30900, 25422, 21949, 23970, 30824], [32335, 22592, 20695, 25443, 30771, 35053, 37752, 38463, 37950, 34627, 28885, 27506, 32818, 37850, 38422, 36534, 33136, 28794, 25477, 23484, 23257, 27326, 35347, 42318, 43779, 39804, 34428, 31806, 32871, 35638, 37313, 37330, 36707, 31921, 19174, 6619, 6687, 18974, 35068, 49917, 59438, 61045, 57171, 48300, 32872, 17251, 9997, 10058, 13180, 19636, 28292, 35113, 40012, 45175, 49045, 49254, 45887, 38586, 28037, 19784, 19000, 23854, 29241, 33693, 37927, 39303, 35018, 29284, 27624, 28286, 29105, 32680, 37810, 39376, 37746, 36215, 34624, 33144, 32898, 32080, 30720, 31627, 31943, 27392, 22557, 23757, 29632, 36456, 42586, 45196, 41899, 35405, 30158, 27154, 26370, 29002, 34147, 38485, 40277, 39082], [41617, 42512, 35126, 27797, 26820, 28983, 29073, 25717, 25020, 32879, 41369, 40620, 36082, 35256, 34836, 32067, 30122, 30181, 30944, 32010, 32360, 31494, 31514, 33133, 34154, 34224, 35145, 36019, 33821, 29534, 26821, 24547, 21908, 26872, 44045, 60492, 58746, 40115, 22485, 17082, 18775, 17474, 12301, 14123, 30610, 51787, 61309, 56825, 46839, 36306, 27028, 21287, 18756, 20748, 30336, 38424, 32269, 21232, 22748, 32840, 39973, 44794, 47365, 42466, 33771, 29328, 27113, 23640, 25048, 33378, 38263, 34722, 30982, 31840, 32364, 30160, 28598, 29942, 34146, 38888, 39719, 36273, 33331, 32631, 31856, 30740, 30312, 30018, 30017, 31239, 32847, 33819, 34591, 35274, 35002, 32867, 29538, 28255, 30498, 32908], [38897, 40293, 39120, 35712, 31319, 27689, 26632, 28635, 31298, 32114, 31721, 31579, 31427, 31003, 31528, 34207, 38335, 41686, 42072, 38566, 32554, 26694, 22955, 23271, 28477, 34433, 35502, 32498, 30567, 31295, 32438, 33345, 36000, 40083, 41839, 39739, 35690, 30617, 25270, 22889, 24883, 28178, 30699, 33706, 37200, 38300, 35149, 30379, 29341, 33777, 39054, 40072, 37519, 34911, 32133, 27671, 24605, 26227, 29563, 31250, 32765, 34659, 34661, 32695, 31463, 33656, 38708, 41709, 39846, 35695, 30983, 25942, 23674, 26074, 29712, 31423, 32683, 35410, 37622, 35877, 30973, 28655, 32406, 38143, 40179, 38443, 35267, 30993, 26650, 25203, 27886, 32394, 35148, 34672, 32471, 30492, 29396, 29635, 31919, 35647], [32354, 32437, 32678, 33028, 33711, 34680, 34958, 33904, 32581, 32078, 31936, 31777, 32034, 32549, 32761, 32519, 31960, 31762, 32384, 33004, 33262, 34202, 35386, 34702, 32422, 30949, 30737, 30974, 32059, 33763, 34417, 33753, 33040, 32625, 32073, 31656, 31988, 32921, 33613, 33456, 32759, 32471, 32846, 33100, 32880, 32669, 32802, 33271, 33683, 33399, 32438, 31192, 30009, 30169, 32506, 34989, 35243, 34023, 33193, 32944, 32942, 33221, 33367, 33154, 32875, 32094, 30682, 30052, 30695, 31408, 32153, 33956, 36156, 36748, 35287, 33496, 32634, 31870, 30440, 29744, 31128, 33126, 33508, 32635, 32305, 32776, 33155, 33448, 34096, 34332, 33285, 32034, 31943, 32243, 31971, 32013, 33011, 34011, 34164, 33512], [24426, 31794, 38143, 42132, 45114, 44351, 36593, 27925, 26647, 29581, 30610, 31850, 34575, 34577, 30218, 24532, 22348, 26275, 33214, 38877, 43033, 45573, 42668, 33662, 26587, 27126, 30113, 31139, 32866, 35184, 33832, 28218, 22807, 22890, 28803, 35674, 40634, 44475, 45525, 39667, 29464, 24509, 27218, 30550, 32243, 35233, 37327, 34193, 27161, 22152, 23305, 28818, 34621, 39800, 44501, 45193, 38373, 29270, 26904, 30078, 31679, 31918, 33887, 35128, 31807, 25112, 21323, 24658, 31773, 37662, 41916, 45111, 44027, 36191, 27738, 26604, 30041, 31729, 32668, 34328, 33493, 28644, 23276, 22464, 27351, 34216, 40045, 44785, 46834, 41962, 31562, 25266, 27057, 29939, 30503, 32323, 34802, 33717, 28666, 23793], [19201, 7829, 5637, 15502, 31141, 46533, 55861, 52909, 41678, 34866, 36214, 38835, 39340, 39259, 36642, 28732, 19370, 13312, 9984, 10876, 20335, 35689, 48832, 53998, 50293, 43204, 39044, 37338, 36218, 37040, 38147, 34340, 24616, 14585, 10249, 12028, 17411, 26626, 40102, 51822, 53453, 46468, 40045, 36962, 34349, 33713, 37023, 39905, 36390, 25587, 13296, 7313, 9859, 18318, 31318, 46359, 55132, 51722, 42374, 36767, 35371, 34958, 36602, 40006, 39868, 32438, 20285, 10302, 8039, 13533, 23581, 36015, 48071, 53538, 48995, 40635, 36229, 35225, 34505, 35315, 38206, 38301, 30568, 17818, 9054, 9313, 16393, 27553, 42019, 54533, 56019, 46908, 37928, 33813, 31116, 29572, 31689, 35856, 36270, 29037]], "framecount": 18.0, "time": 1489540201092}
{"dataframe": [[28182, 26621, 27051, 29004, 31267, 33249, 35146, 36379, 36057, 34941, 34247, 33480, 32155, 31498, 31932, 31917, 31259, 31692, 33014, 33334, 32770, 32471, 32250, 32142, 32856, 33813, 34000, 33683, 33262, 32606, 32129, 32332, 32733, 32752, 32613, 32654, 32732, 32578, 32280, 32220, 32497, 32916, 33358, 33443, 32815, 32240, 32664, 33452, 33688, 33803, 33773, 32556, 30903, 30767, 31667, 31999, 32331, 33437, 34278, 34221, 33664, 32945, 32769, 33225, 33024, 32082, 31728, 31933, 31950, 32120, 32697, 33063, 32747, 32095, 32287, 34179, 36677, 37468, 35412, 31591, 28168, 26656, 27444, 29946, 32778, 35083, 37027, 38003, 36890, 34591, 32906, 31721, 30381, 29471, 29528, 30447, 31872, 33086, 33863, 34621], [38412, 43309, 44342, 41282, 35110, 28509, 24551, 25337, 29721, 33012, 32688, 31323, 30833, 29810, 29160, 32557, 38723, 41891, 40757, 38311, 35213, 30882, 27043, 25784, 27218, 29642, 31125, 31670, 32365, 32809, 32320, 32543, 35390, 39186, 40606, 39184, 36187, 32038, 27602, 24990, 25837, 29210, 31996, 32935, 33693, 34440, 33224, 30842, 30890, 34072, 37549, 39739, 40408, 38132, 32807, 27317, 24615, 25808, 29134, 31196, 31957, 33394, 33684, 31324, 30296, 33429, 38103, 41649, 42884, 40129, 33986, 27740, 23565, 23059, 26996, 31336, 31610, 30238, 31041, 32574, 33411, 35541, 39268, 42132, 42776, 40977, 36257, 29496, 23344, 20304, 21786, 26749, 31654, 34720, 36721, 36935, 34727, 32881, 33659, 35884], [32209, 19724, 11424, 16632, 31812, 46698, 52167, 43919, 30826, 27557, 33410, 37164, 37120, 37367, 36548, 31864, 24098, 18053, 19244, 25087, 29322, 34890, 43415, 45137, 39015, 37472, 41507, 40973, 34843, 27717, 21232, 18452, 21349, 27031, 32919, 37369, 38646, 38681, 39977, 39867, 35737, 30876, 28954, 28757, 28689, 30216, 33703, 36267, 35942, 34866, 35248, 33268, 25543, 19807, 24193, 32840, 37242, 38214, 38653, 39369, 40568, 39806, 35729, 32398, 33750, 35953, 27829, 8370, 0, 14190, 37756, 52963, 61695, 60546, 44745, 28692, 24106, 23307, 22398, 27288, 35237, 36635, 30339, 24740, 25296, 27557, 28495, 33954, 43647, 46209, 39232, 33220, 32450, 32801, 33609, 34806, 33331, 30823, 30804, 29134], [33644, 36100, 40967, 41251, 33131, 25844, 28140, 33288, 32245, 28600, 28254, 29565, 31220, 34611, 35141, 29281, 28926, 42982, 53371, 43220, 28036, 24190, 22929, 20080, 24731, 32987, 35613, 36641, 38522, 36547, 34147, 36367, 37719, 34216, 30596, 29549, 29039, 28362, 28237, 29542, 33001, 36536, 37259, 36135, 34770, 32599, 30999, 31843, 33043, 32074, 29502, 28436, 32463, 39903, 42864, 36787, 27613, 25084, 29073, 30691, 28362, 28744, 33266, 38066, 39579, 35547, 31385, 34679, 40223, 41290, 39796, 31320, 14327, 6874, 18461, 33944, 42925, 48073, 47747, 39099, 28594, 27083, 35359, 39564, 32318, 25971, 28477, 30295, 27278, 27732, 33326, 37746, 38969, 36475, 30005, 27100, 32101, 35342, 32390, 32470], [39190, 42483, 44289, 39327, 27586, 19265, 20802, 26990, 31932, 35296, 36816, 35403, 32625, 30711, 30287, 32104, 36221, 39861, 40307, 38051, 34262, 29123, 24927, 24965, 27970, 30254, 32351, 36138, 38140, 34113, 27818, 27159, 33129, 39223, 40915, 39727, 37704, 33888, 28410, 24968, 25759, 28263, 30051, 31745, 33676, 34907, 34759, 32852, 31005, 32834, 37470, 40000, 39264, 37627, 35068, 29811, 23609, 21792, 25853, 30799, 33133, 34532, 35592, 34381, 32254, 33288, 37324, 40328, 40904, 39835, 35695, 27433, 19120, 17598, 24543, 33400, 37615, 37865, 37039, 35296, 33217, 32708, 34046, 35849, 36635, 35766, 33962, 31767, 28477, 25326, 26238, 31152, 34664, 34746, 34511, 34697, 33060, 30099, 29328, 32702], [32375, 31291, 30822, 31059, 31857, 33135, 34346, 34676, 34244, 33685, 33081, 32666, 32868, 33022, 32275, 31262, 30961, 31185, 31594, 32401, 33291, 33823, 34487, 35126, 34460, 32798, 31934, 32037, 32158, 32502, 33179, 33005, 31682, 30711, 30965, 31722, 32684, 34273, 35732, 35582, 33857, 32162, 31636, 31850, 31949, 31967, 32461, 33433, 33896, 32988, 31590, 31242, 31882, 32695, 33534, 33960, 33524, 33049, 33125, 32961, 32315, 32111, 32700, 33558, 34113, 33882, 32802, 31439, 30382, 30057, 30745, 32272, 34068, 35219, 35062, 34312, 33981, 33582, 32585, 31991, 32436, 32711, 31700, 30321, 30096, 31114, 32728, 34385, 35189, 34769, 33842, 33048, 32695, 32894, 33019, 32538, 31972, 31938, 32337, 32615], [24168, 30047, 36455, 40611, 43671, 44127, 38222, 29315, 26003, 28585, 30718, 31944, 34459, 35379, 31706, 25690, 22764, 25952, 32422, 37662, 41035, 43681, 42939, 35638, 27332, 26325, 30060, 31962, 33182, 35558, 35471, 30383, 23574, 21458, 26198, 33067, 38133, 42556, 45988, 43145, 33402, 26350, 27635, 30618, 30975, 32463, 35070, 34008, 28302, 22479, 22401, 28821, 36314, 41197, 44623, 45495, 39479, 29535, 25508, 28378, 30417, 30689, 33081, 35284, 32752, 26900, 23804, 26576, 31948, 36387, 40211, 43437, 42748, 35829, 27965, 26880, 30523, 32159, 32536, 34316, 34726, 30948, 24943, 22144, 25833, 32851, 38584, 42692, 45343, 42594, 33184, 25722, 26993, 30949, 31904, 33360, 35997, 34601, 28153, 22003], [18854, 14359, 16825, 22308, 30630, 42213, 50697, 48962, 40618, 35125, 34162, 34081, 35405, 39245, 41218, 35787, 23955, 13562, 10416, 13220, 19988, 31572, 45235, 52585, 49083, 40874, 36243, 35522, 35915, 38034, 41416, 40944, 32542, 19523, 9400, 6151, 10354, 21957, 37645, 50342, 54070, 49321, 42462, 37301, 33410, 32963, 37536, 42007, 40142, 30682, 17752, 8596, 7436, 12801, 23073, 38100, 52661, 56989, 48355, 36108, 31091, 33941, 38677, 42949, 45797, 41343, 26786, 10551, 2621, 4426, 13327, 27901, 44560, 54887, 53181, 44992, 39640, 38340, 38504, 40514, 43441, 42549, 33789, 18834, 5409, 311, 4205, 15127, 31404, 47776, 54698, 50717, 48515, 53153, 51640, 40906, 34869, 35129, 29901, 17994]], "framecount": 19.0, "time": 1489540201186}
{"dataframe": [[35043, 34688, 34139, 33471, 32138, 31100, 31405, 31844, 31529, 31681, 32765, 33704, 34096, 34118, 33624, 32984, 32777, 32498, 31742, 31251, 31227, 31503, 33121, 35813, 36595, 34628, 32681, 31725, 30359, 29206, 29711, 31097, 32483, 34263, 36036, 36640, 35661, 33290, 30887, 31070, 33515, 34128, 32171, 31024, 30818, 29891, 30069, 32309, 34094, 34737, 35526, 35706, 34453, 33129, 32482, 31790, 31100, 31046, 31426, 31780, 32218, 32835, 33403, 33803, 33936, 33775, 33714, 33737, 33059, 31788, 31153, 31446, 32020, 32716, 33274, 33071, 32539, 32604, 33094, 33450, 33629, 33563, 33153, 32616, 32214, 32076, 32126, 32249, 32554, 32812, 32670, 32742, 33309, 33135, 32323, 32798, 33922, 33388, 32266, 32695], [37987, 39034, 37762, 34221, 29918, 25666, 23106, 25388, 31231, 34823, 34965, 34977, 34645, 32175, 29946, 31176, 35258, 39259, 40670, 38786, 35264, 31472, 26549, 22117, 23252, 29355, 33835, 35270, 36446, 36124, 33331, 31812, 33729, 36529, 37434, 36529, 35443, 34348, 31354, 26329, 23517, 26050, 30313, 32201, 33517, 35572, 35658, 34117, 34493, 36581, 37909, 38582, 38598, 35527, 29007, 23055, 21832, 25590, 30918, 34349, 35659, 36119, 35206, 32708, 31207, 32480, 35055, 37564, 39547, 38840, 34427, 29524, 26530, 24922, 25862, 30121, 34205, 35239, 34056, 32314, 31493, 32224, 33837, 36359, 39440, 40410, 37769, 33160, 28167, 24306, 24280, 27858, 31650, 34854, 37301, 36076, 31963, 29905, 30384, 31421], [22006, 16607, 21362, 34329, 47408, 52729, 46280, 33682, 26288, 27235, 30111, 31181, 32521, 34886, 35986, 34374, 31677, 29976, 27144, 21912, 21177, 29947, 41938, 49265, 48403, 37975, 25324, 24221, 34081, 37967, 30062, 24619, 29580, 34743, 32576, 28299, 27519, 30713, 36501, 40746, 38908, 33137, 29816, 30776, 33358, 35186, 36064, 38135, 39895, 34566, 24031, 19158, 20934, 23598, 29176, 37679, 41187, 39386, 39272, 40372, 38735, 36880, 37524, 36765, 30440, 21745, 17999, 20213, 22128, 23574, 32400, 46685, 53257, 48096, 38557, 29836, 25279, 27165, 30790, 31969, 33663, 36243, 35228, 29776, 23111, 20227, 25628, 36558, 44837, 45902, 39932, 30892, 25379, 25697, 29439, 35251, 40674, 41445, 37512, 31882], [36945, 37440, 33964, 31497, 30322, 31260, 34319, 34074, 29996, 28778, 30761, 30812, 29715, 30957, 33387, 34679, 35534, 37624, 39927, 39736, 39256, 40827, 34659, 15709, 3911, 14669, 32781, 40697, 40734, 41640, 46340, 48628, 40444, 27816, 23795, 27010, 27764, 25856, 25386, 26328, 30671, 39933, 46135, 41941, 32707, 27622, 28702, 32194, 34377, 34254, 32038, 29043, 28419, 30951, 33818, 36311, 39135, 39007, 33807, 28154, 25604, 24748, 26968, 34527, 41277, 40702, 39196, 43216, 41393, 23884, 6332, 8041, 24726, 41024, 49977, 51379, 45976, 37681, 33033, 32583, 29929, 22625, 16113, 16858, 25984, 36984, 41701, 40376, 39144, 40394, 42026, 40419, 33745, 26241, 23206, 23505, 24269, 26419, 30642, 35033], [38035, 41230, 40561, 37060, 31572, 25175, 21626, 24209, 30422, 34953, 36345, 35887, 34096, 32134, 31741, 32996, 35195, 37072, 36384, 34010, 34200, 36015, 32982, 25550, 22440, 26515, 31634, 34267, 36043, 36521, 34335, 32146, 32970, 35611, 37247, 36760, 34775, 32530, 30039, 27067, 26357, 29873, 33913, 34983, 34402, 33288, 31507, 30721, 31878, 33904, 36207, 37765, 36966, 34785, 32802, 29724, 26217, 27515, 34020, 37701, 34261, 29253, 28075, 29100, 29634, 31572, 36707, 41571, 42324, 39522, 35146, 30642, 27186, 25057, 25111, 28288, 32441, 34687, 34826, 33405, 31171, 30510, 33377, 38747, 42871, 41631, 35038, 28512, 25902, 25485, 26279, 29684, 33599, 34885, 34847, 34901, 33553, 31109, 30351, 32337], [32340, 31966, 32178, 32412, 32090, 32372, 33934, 35025, 34394, 33278, 32798, 32715, 32969, 33430, 33132, 31729, 30311, 29958, 30757, 32249, 33645, 34297, 34593, 34914, 34512, 33351, 32601, 32296, 31960, 32193, 32763, 32513, 31807, 31459, 31271, 31619, 32932, 33998, 34127, 34242, 34175, 33147, 32345, 32638, 32757, 32457, 32718, 32867, 32200, 31676, 31593, 31530, 32010, 33121, 33999, 34553, 34875, 34192, 32560, 31340, 31210, 31703, 32329, 32997, 33707, 34057, 33443, 32097, 31106, 31167, 32089, 33260, 34041, 34072, 33567, 33056, 32722, 32448, 32342, 32593, 33208, 33702, 33067, 31481, 30687, 31194, 31905, 32639, 33836, 34826, 34726, 33886, 33168, 32725, 32321, 32034, 32040, 32378, 32739, 32397], [21882, 28003, 35266, 40224, 43841, 45530, 41039, 31449, 25940, 27936, 30677, 31399, 33478, 35402, 32554, 26011, 21913, 24315, 31011, 37304, 41632, 44620, 44130, 37010, 27863, 25652, 29327, 31700, 33242, 36250, 36353, 30610, 23364, 20606, 23986, 30743, 37616, 43301, 46934, 45142, 36083, 27276, 26974, 30566, 30970, 31020, 33343, 33595, 28981, 23225, 22438, 28096, 35564, 40722, 43976, 45509, 41452, 31663, 25277, 27206, 30526, 31318, 33122, 35076, 32976, 27522, 23121, 23663, 29345, 36313, 41625, 45290, 45277, 38150, 28356, 25292, 28438, 30576, 31873, 34933, 36181, 32329, 25634, 21543, 24169, 31403, 37570, 41384, 44765, 44792, 37188, 27883, 26265, 29609, 30918, 31876, 34548, 34908, 30442, 24258], [7417, 2146, 3900, 14064, 29652, 45953, 58994, 62598, 54603, 42914, 33865, 27050, 26036, 34580, 44718, 43871, 29153, 10069, 0, 3267, 15611, 31567, 48411, 59019, 56137, 45212, 37747, 35499, 34528, 35138, 38434, 40578, 34927, 20734, 7344, 3682, 9009, 19508, 34285, 49244, 55164, 50711, 46638, 46780, 42890, 35708, 34921, 38048, 34484, 22891, 9817, 1791, 3105, 13735, 29563, 46025, 58371, 60729, 52245, 40927, 34285, 32355, 32994, 35207, 36681, 33873, 25704, 15704, 8650, 7406, 14191, 29358, 47504, 58577, 56442, 46505, 38981, 36223, 34877, 34053, 34080, 33631, 30031, 22179, 14422, 12122, 15485, 22508, 31920, 41730, 48488, 49666, 47711, 45760, 40703, 32080, 29525, 36786, 41682, 34847]], "framecount": 20.0, "time": 1489540201295}
{"dataframe": [[33423, 32872, 32105, 32024, 31993, 31738, 31910, 32928, 34088, 34338, 33847, 33387, 32722, 31591, 31089, 31919, 33009, 33426, 33538, 33637, 33321, 32427, 31575, 31539, 32208, 32863, 33410, 33970, 33943, 33201, 32714, 32703, 32016, 29809, 27738, 30273, 38069, 43361, 41006, 35619, 30458, 24494, 21073, 23567, 28473, 32508, 36692, 40608, 41769, 40055, 37393, 34641, 31357, 27884, 25981, 26534, 28280, 30104, 32287, 34589, 35956, 36400, 36630, 36304, 34731, 32588, 31303, 31183, 31292, 30946, 30651, 31257, 32443, 33108, 33183, 33485, 34024, 34129, 33761, 33268, 32679, 32260, 32468, 32811, 32425, 31816, 32005, 32446, 32159, 32074, 33353, 34610, 34198, 33137, 32628, 32094, 31587, 31986, 32799, 33199], [34568, 39680, 41757, 38043, 32047, 28595, 28034, 27750, 27792, 30292, 33974, 34844, 32564, 30708, 30749, 31826, 34533, 38574, 40561, 38758, 35220, 31529, 27680, 25556, 27568, 31621, 33400, 32882, 32772, 32803, 31185, 29312, 30830, 36798, 43209, 44241, 38749, 30960, 24079, 19384, 20694, 29325, 37983, 40532, 39774, 38683, 35579, 30373, 26723, 27675, 31738, 34730, 35501, 35675, 35164, 33005, 30234, 29131, 30726, 33371, 34473, 33305, 31084, 29525, 29619, 31461, 34684, 37882, 39315, 38689, 36266, 32052, 27508, 25651, 27832, 31541, 33220, 32570, 31898, 32353, 32943, 32630, 32475, 34603, 38513, 40580, 38267, 33363, 29622, 27930, 27185, 28059, 30507, 31965, 32142, 32830, 33081, 31965, 32098, 34768], [26313, 22803, 23072, 26129, 30530, 35731, 39713, 40127, 37835, 35345, 33525, 32647, 33347, 34928, 35667, 34070, 29298, 23672, 22013, 24935, 29090, 34895, 42828, 45254, 37657, 29549, 29358, 32957, 35083, 35471, 34241, 33229, 35068, 35814, 29287, 20203, 19593, 26975, 32603, 34686, 36966, 37989, 38869, 44784, 49591, 41980, 26703, 18084, 19499, 24088, 27451, 30112, 32483, 34039, 35291, 37115, 40225, 43572, 41278, 30729, 23295, 29226, 37384, 33621, 26091, 26235, 27764, 26531, 30057, 37500, 40847, 40919, 40557, 36670, 29738, 25714, 26922, 31235, 35566, 36431, 33725, 32263, 33732, 32484, 25334, 20036, 26786, 42373, 50621, 43246, 30205, 22741, 21785, 27045, 37507, 43930, 39999, 33721, 32745, 32119], [38424, 40801, 41084, 38428, 34458, 31255, 29104, 28315, 29555, 31203, 30992, 30039, 30776, 32558, 33813, 35682, 38584, 39464, 36691, 32577, 29389, 26955, 24700, 24912, 30450, 37971, 40780, 38646, 36351, 35759, 35698, 33729, 25863, 14151, 13145, 32289, 54729, 56963, 43051, 32239, 27919, 24708, 23191, 22923, 23116, 27150, 34292, 39829, 42417, 41941, 38951, 36894, 36316, 33254, 27376, 22693, 21078, 23254, 31537, 43003, 46148, 36018, 25846, 28623, 36343, 35681, 30961, 32132, 36112, 35845, 32202, 28795, 27331, 28955, 32538, 35270, 36629, 36348, 33236, 29984, 30204, 31879, 32792, 35028, 37745, 36207, 30939, 27617, 27839, 29556, 33751, 39219, 38215, 30640, 28571, 35327, 38857, 32606, 24578, 23714], [35578, 38043, 38469, 36720, 33413, 29428, 26555, 27217, 30911, 33657, 33509, 32206, 31017, 30104, 30541, 33327, 37250, 39520, 39116, 37253, 34310, 30174, 26446, 25422, 28113, 32802, 35879, 35538, 32755, 29790, 29418, 32130, 34885, 35784, 36248, 37215, 37552, 35911, 31567, 25838, 23477, 27541, 33944, 37261, 37278, 35259, 31550, 28243, 27588, 29832, 34440, 39390, 41211, 38646, 33758, 29303, 27204, 28243, 31069, 32848, 32497, 31566, 31428, 31686, 31542, 31870, 34430, 38007, 38909, 36686, 34551, 33421, 31122, 28165, 27740, 29526, 30867, 32029, 33368, 32657, 29901, 29006, 33053, 40085, 43841, 40968, 35273, 30975, 27540, 24727, 25294, 29321, 32741, 34215, 36493, 38802, 35851, 27425, 22073, 26551], [31455, 31265, 32290, 33309, 33569, 33591, 33731, 33873, 33955, 33620, 32772, 32280, 32304, 31926, 31481, 31785, 31912, 31459, 31884, 33281, 34220, 34660, 35071, 34637, 33001, 31545, 31218, 31243, 31228, 32007, 33442, 34151, 33635, 32727, 32268, 32231, 32356, 32847, 33608, 33928, 33406, 32360, 31523, 31478, 32281, 33447, 34168, 34110, 33562, 32651, 31669, 31215, 31272, 31510, 32118, 33321, 34658, 35157, 34213, 32402, 31178, 31573, 33103, 34221, 34099, 33208, 32076, 30899, 30279, 30794, 32115, 33544, 34689, 35086, 34313, 32895, 32081, 32428, 33021, 32743, 32323, 33200, 34274, 33277, 30831, 29351, 29758, 31550, 33605, 34834, 35219, 35181, 34809, 34165, 33113, 31771, 31145, 31588, 31885, 31371], [22022, 26071, 32758, 38431, 43366, 46376, 42659, 32896, 26707, 28242, 30412, 30533, 33018, 35992, 33925, 27590, 22173, 22299, 28243, 35392, 40496, 44319, 45735, 40499, 30778, 26167, 28688, 30738, 30698, 33055, 35829, 33019, 25511, 21057, 24207, 31397, 37645, 42204, 45497, 44693, 36914, 27513, 25410, 29011, 31138, 32384, 35073, 35564, 30962, 24259, 21464, 25462, 32873, 38939, 42734, 44781, 42433, 34179, 27000, 27443, 30787, 31951, 33475, 35408, 33770, 28358, 22973, 22146, 27066, 33715, 38800, 43204, 46090, 42614, 33242, 27165, 28395, 30534, 30766, 32427, 34329, 32231, 26608, 22405, 23822, 29872, 36300, 41338, 45358, 45772, 38937, 29264, 26167, 29259, 31018, 31118, 32880, 34114, 31197, 25360], [22073, 11295, 5664, 9022, 21432, 34617, 42237, 46465, 49795, 49485, 44107, 39084, 39463, 42008, 41942, 37992, 26631, 9058, 0, 2447, 13053, 26602, 44682, 58974, 59295, 50834, 43686, 37233, 30403, 28586, 32117, 35789, 35300, 27278, 15449, 9857, 12716, 20497, 33946, 49617, 56035, 49992, 41688, 37986, 35654, 33099, 32858, 33900, 32980, 28208, 19600, 12011, 11309, 17248, 27821, 42638, 55386, 56059, 45500, 34468, 29127, 29409, 34329, 40158, 42018, 38205, 28824, 16851, 9331, 10770, 19519, 32015, 44401, 50699, 47206, 39412, 35658, 35540, 35253, 36447, 39582, 40100, 35168, 26190, 17596, 13505, 13762, 18124, 28676, 42413, 50053, 46398, 37533, 33705, 36499, 40388, 43255, 44960, 42230, 33240]], "framecount": 21.0, "time": 1489540201405}
{"dataframe": [[33421, 33444, 32844, 32139, 32158, 32679, 33062, 33270, 33294, 32845, 32252, 32115, 32255, 32358, 32593, 33118, 33851, 34282, 33657, 32239, 31442, 31810, 32183, 31895, 32006, 33066, 33947, 34004, 33808, 33509, 32883, 32339, 32265, 32401, 32391, 32217, 32178, 32403, 32523, 32491, 32801, 33288, 33371, 33327, 33480, 33337, 32883, 32748, 32792, 32461, 31891, 31578, 31905, 32839, 33582, 33441, 32930, 32965, 33338, 33243, 32797, 32488, 31849, 30734, 30883, 33321, 35672, 35437, 33546, 31820, 30470, 30223, 32338, 35536, 37205, 36323, 33195, 29402, 27359, 27942, 30205, 32800, 34599, 35492, 36138, 36277, 35102, 33120, 31577, 30830, 30739, 31158, 31593, 31932, 32569, 33145, 33176, 33284, 33797, 34111], [37389, 38450, 38868, 38105, 34452, 28809, 24550, 24218, 27513, 31605, 33844, 34376, 34750, 34730, 33043, 31143, 32345, 36217, 38812, 38671, 36766, 32936, 28005, 25466, 27170, 30606, 32437, 32501, 32450, 32508, 32028, 31462, 32279, 35418, 39465, 41224, 39106, 34815, 30906, 27676, 25054, 25479, 29535, 32970, 33341, 32890, 32531, 31115, 30357, 33466, 39676, 44151, 43058, 37282, 30685, 25600, 22477, 22792, 27010, 31624, 33919, 35385, 37497, 38913, 36955, 31881, 29207, 32134, 36003, 36789, 36215, 34669, 30167, 24932, 23342, 25914, 30873, 36327, 39354, 38542, 35754, 32959, 31482, 32772, 35458, 36286, 35186, 33449, 30409, 26900, 26153, 28988, 32757, 34801, 34775, 34027, 33228, 31781, 30300, 31178], [27677, 24384, 25324, 28150, 31849, 36313, 39781, 40655, 38160, 33826, 32782, 36278, 36102, 27810, 21757, 25833, 31581, 32238, 32554, 33316, 32031, 34312, 41054, 41027, 33200, 30204, 32220, 29490, 26246, 30824, 37279, 38940, 38321, 35213, 27835, 22095, 22675, 26517, 32654, 41993, 47006, 39936, 28027, 24389, 29724, 35659, 39293, 43520, 45451, 35877, 15457, 1236, 7913, 29279, 46459, 50991, 49818, 48005, 42603, 34967, 30609, 27983, 21731, 13860, 13701, 25291, 39273, 45128, 44181, 41162, 36032, 31002, 30926, 34665, 37232, 36528, 32247, 25269, 18999, 17877, 25738, 40476, 50242, 46427, 36632, 31658, 30218, 28220, 27345, 28073, 28875, 30415, 32512, 34116, 36122, 38028, 38383, 39381, 40678, 35517], [30423, 38166, 39007, 33627, 32010, 36578, 37001, 29505, 25139, 30932, 37737, 36275, 32280, 33077, 33448, 29181, 26489, 28484, 32126, 36966, 40706, 38404, 33914, 33699, 32720, 27230, 26030, 31445, 33819, 31746, 31639, 32968, 33192, 34318, 35927, 35825, 35972, 36469, 33184, 27628, 26562, 30416, 32361, 29371, 29142, 38735, 47124, 38136, 20114, 15913, 28723, 42812, 47435, 43055, 35083, 29120, 26260, 24031, 23196, 26833, 32490, 34867, 36126, 41000, 44786, 41215, 34185, 29359, 25972, 22981, 22899, 27546, 33989, 36806, 35243, 33905, 35640, 39649, 43758, 42856, 33127, 21171, 17488, 22209, 28615, 34578, 39603, 39136, 33153, 30451, 34587, 38672, 38629, 36521, 32925, 28160, 24745, 24125, 27414, 34871], [36299, 42628, 43964, 42133, 36284, 28270, 24052, 25598, 28946, 30514, 30705, 31427, 32671, 32962, 32086, 32056, 34982, 39917, 43249, 42114, 36257, 28482, 23276, 22939, 26338, 30766, 33416, 33691, 33665, 34058, 33472, 32497, 33457, 36112, 37916, 37846, 36526, 34023, 30497, 27264, 26082, 28063, 31651, 32970, 31442, 31628, 35197, 36270, 31653, 29287, 35822, 43509, 42063, 34244, 28539, 26671, 26361, 27350, 29604, 32006, 34430, 36344, 35542, 32171, 29783, 30497, 33302, 36533, 38873, 39251, 37300, 33388, 28509, 24937, 25212, 28674, 31942, 33763, 34873, 34747, 33345, 32357, 32792, 34770, 37261, 37562, 35408, 33774, 32770, 29682, 25871, 26014, 30378, 34120, 34079, 31926, 31306, 33865, 36880, 36272], [30913, 31106, 31774, 32935, 34432, 35632, 35998, 35056, 32948, 30965, 30138, 30582, 32186, 34028, 34625, 33877, 32821, 31864, 30983, 30686, 31460, 32857, 34008, 34570, 34568, 34053, 33275, 32552, 32062, 31982, 32477, 33278, 33453, 32353, 30799, 30189, 30831, 32288, 34102, 35376, 35313, 34331, 33369, 32732, 32154, 31456, 31371, 32726, 34218, 33786, 32030, 30831, 30508, 30979, 32400, 33854, 34505, 34776, 34641, 33661, 32638, 32366, 32445, 32644, 32992, 32724, 31471, 30511, 30964, 32099, 32917, 33658, 34508, 34726, 33968, 32885, 32170, 32073, 32573, 33373, 33943, 33739, 32516, 30799, 29834, 30253, 31456, 33064, 35012, 36107, 35270, 33294, 31650, 31218, 32079, 33250, 33740, 33737, 33380, 32162], [22339, 25819, 32551, 37919, 42087, 45698, 44357, 35445, 26890, 26537, 29580, 30308, 31925, 35305, 35323, 30208, 23899, 21985, 26439, 33512, 39336, 43799, 46057, 41945, 32012, 25711, 27669, 30838, 31407, 33215, 35597, 33785, 27775, 22412, 22557, 28431, 35583, 40972, 44881, 45559, 39375, 29758, 25785, 28304, 30744, 31940, 34115, 35215, 32292, 26446, 22609, 24663, 30666, 36551, 41575, 45484, 44183, 35312, 26504, 26322, 30548, 32138, 33346, 35980, 35751, 30467, 23332, 20364, 24746, 32593, 38943, 43649, 46327, 42630, 32780, 26282, 28030, 31058, 31621, 33733, 36249, 33807, 26972, 21332, 21539, 27601, 35288, 41303, 45539, 46622, 40823, 30443, 24916, 26936, 29941, 31647, 34495, 36229, 32836, 26056], [20952, 9937, 4274, 6801, 17710, 34106, 49880, 57024, 52444, 42935, 36925, 35066, 34808, 35957, 37602, 36653, 30753, 21021, 12275, 9347, 13760, 24573, 39038, 50598, 52118, 45248, 38715, 35530, 33303, 33655, 38264, 42246, 39607, 29554, 16986, 9068, 9316, 16404, 28113, 41573, 50841, 50750, 43894, 37837, 35752, 35916, 37407, 40044, 41042, 36075, 24460, 11406, 3961, 6605, 19485, 37878, 53420, 57245, 47577, 35023, 30934, 33969, 37844, 41524, 43798, 39849, 28364, 15568, 9546, 12009, 18242, 25020, 33597, 42941, 47296, 45593, 44313, 45621, 44550, 40428, 37820, 37038, 33378, 23866, 11672, 3919, 4582, 12477, 26114, 43611, 57426, 58901, 50371, 42474, 39280, 37378, 35866, 36173, 35777, 29573]], "framecount": 22.0, "time": 1489540201499}
