{"dataframe": [[32768, 32768, 32768, 32768, 32768, 32768, 32768, 32768, 32768, 32768, 32768, 32768, 32768, 32768, 32768, 32768, 32768, 32768, 32768, 32768, 32768, 32768, 32768, 32768, 32768, 32768, 32768, 32768, 32768, 32768, 32768, 32768, 32768, 32768, 32768, 32768, 32768, 32768, 32768, 32768, 32768, 32768, 32768, 32768, 32768, 32768, 33217, 33707, 34147, 33624, 32122, 30752, 30284, 30609, 31364, 32292, 33285, 34273, 34720, 33973, 32767, 32636, 33472, 34047, 34329, 34539, 33501, 30993, 29311, 29627, 30272, 30549, 31961, 34522, 36004, 35630, 34724, 33827, 32844, 32534, 32973, 33110, 32698, 32015, 31020, 30296, 30648, 31737, 32687, 33337, 33955, 34316, 34159, 33937, 33861, 33528, 33155, 33117, 32869, 32042], [32768, 32768, 32768, 32768, 32768, 32768, 32768, 32768, 32768, 32768, 32768, 32768, 32768, 32768, 32768, 32768, 32768, 32768, 32768, 32768, 32768, 32768, 32768, 32768, 32768, 32768, 32768, 32768, 32768, 32768, 32768, 32768, 32768, 32768, 32768, 32768, 32768, 32768, 32768, 32768, 32768, 32768, 32768, 32768, 32768, 32768, 32694, 29759, 30474, 34395, 37453, 37315, 35913, 36035, 35930, 32013, 26631, 26045, 30358, 33010, 31727, 31381, 33718, 34350, 31630, 29632, 31986, 36983, 39604, 38454, 36625, 34704, 30573, 26252, 26031, 29033, 31438, 32724, 33677, 33387, 32083, 31698, 32812, 34888, 37320, 38642, 37674, 34894, 31269, 27948, 26889, 28773, 31339, 32565, 33141, 33522, 32592, 30790, 30397, 32529], [32768, 32768, 32768, 32768, 32768, 32768, 32768, 32768, 32768, 32768, 32768, 32768, 32768, 32768, 32768, 32768, 32768, 32768, 32768, 32768, 32768, 32768, 32768, 32768, 32768, 32768, 32768, 32768, 32768, 32768, 32768, 32768, 32768, 32768, 32768, 32768, 32768, 32768, 32768, 32768, 32768, 32768, 32768, 32768, 32768, 32768, 34203, 34268, 33652, 32271, 30091, 28147, 28010, 29726, 32081, 34276, 36138, 37089, 36297, 34307, 32731, 32059, 31822, 32175, 33151, 33559, 32510, 30907, 30171, 30431, 30856, 31444, 33049, 35014, 35373, 34302, 33794, 34133, 34391, 34449, 34137, 33000, 31344, 29696, 28493, 28528, 29993, 32046, 34200, 36281, 37116, 35737, 33445, 32200, 32111, 32484, 33233, 34046, 34082, 32846], [32768, 32768, 32768, 32768, 32768, 32768, 32768, 32768, 32768, 32768, 32768, 32768, 32768, 32768, 32768, 32768, 32768, 32768, 32768, 32768, 32768, 32768, 32768, 32768, 32768, 32768, 32768, 32768, 32768, 32768, 32768, 32768, 32768, 32768, 32768, 32768, 32768, 32768, 32768, 32768, 32768, 32768, 32768, 32768, 32768, 32768, 33762, 33544, 33288, 33524, 34155, 34442, 33777, 32582, 31843, 31780, 31667, 31277, 31274, 31830, 32703, 34060, 35106, 34119, 31950, 31746, 33487, 33941, 32668, 32122, 32592, 32475, 31828, 31857, 32709, 33683, 34154, 33717, 32525, 31386, 31035, 31707, 33020, 33998, 34125, 33913, 33615, 32960, 32289, 32014, 31934, 32045, 32469, 32865, 32929, 32683, 32287, 32112, 32445, 33123], [32768, 32768, 32768, 32768, 32768, 32768, 32768, 32768, 32768, 32768, 32768, 32768, 32768, 32768, 32768, 32768, 32768, 32768, 32768, 32768, 32768, 32768, 32768, 32768, 32768, 32768, 32768, 32768, 32768, 32768, 32768, 32768, 32768, 32768, 32768, 32768, 32768, 32768, 32768, 32768, 32768, 32768, 32768, 32768, 32768, 32768, 31157, 30973, 31971, 34490, 37177, 38217, 37068, 34399, 31570, 29732, 28662, 28206, 29588, 32676, 34946, 35198, 34344, 32742, 30947, 30429, 31188, 32632, 35227, 37856, 38136, 35939, 32402, 28784, 27735, 30102, 32313, 32012, 31443, 31914, 31751, 31210, 32470, 35157, 37225, 38103, 37674, 35415, 32025, 29006, 27332, 27873, 30524, 33188, 34151, 33599, 32082, 30478, 30513, 32917], [32768, 32768, 32768, 32768, 32768, 32768, 32768, 32768, 32768, 32768, 32768, 32768, 32768, 32768, 32768, 32768, 32768, 32768, 32768, 32768, 32768, 32768, 32768, 32768, 32768, 32768, 32768, 32768, 32768, 32768, 32768, 32768, 32768, 32768, 32768, 32768, 32768, 32768, 32768, 32768, 32768, 32768, 32768, 32768, 32768, 32768, 32474, 32745, 32946, 32701, 32340, 32328, 32417, 32418, 32637, 33065, 33504, 33865, 33533, 32355, 31806, 32632, 33288, 32967, 32836, 32935, 32106, 31172, 31681, 32811, 33263, 33459, 33898, 34189, 33867, 32773, 31514, 31293, 32271, 33238, 33324, 32749, 32198, 32238, 32676, 32785, 32598, 32763, 33186, 33421, 33535, 33393, 32736, 32142, 32174, 32437, 32623, 32915, 33119, 32945], [32768, 32768, 32768, 32768, 32768, 32768, 32768, 32768, 32768, 32768, 32768, 32768, 32768, 32768, 32768, 32768, 32768, 32768, 32768, 32768, 32768, 32768, 32768, 32768, 32768, 32768, 32768, 32768, 32768, 32768, 32768, 32768, 32768, 32768, 32768, 32768, 32768, 32768, 32768, 32768, 32768, 32768, 32768, 32768, 32768, 32768, 34188, 35140, 31988, 26469, 23011, 25094, 30551, 35074, 39239, 43998, 44320, 37060, 29399, 28481, 30504, 30986, 32417, 34676, 33891, 29790, 24665, 22180, 25693, 32666, 38284, 42352, 45161, 42894, 34580, 27597, 27599, 30332, 31482, 32977, 34975, 33727, 28303, 23172, 23454, 28532, 33854, 37992, 42066, 44249, 40742, 33144, 28834, 29972, 31330, 31568, 33393, 34642, 31393, 25370], [32768, 32768, 32768, 32768, 32768, 32768, 32768, 32768, 32768, 32768, 32768, 32768, 32768, 32768, 32768, 32768, 32768, 32768, 32768, 32768, 32768, 32768, 32768, 32768, 32768, 32768, 32768, 32768, 32768, 32768, 32768, 32768, 32768, 32768, 32768, 32768, 32768, 32768, 32768, 32768, 32768, 32768, 32768, 32768, 32768, 32768, 24333, 14554, 7963, 7078, 14712, 26482, 29324, 17855, 10622, 27329, 53910, 64276, 59960, 53105, 43713, 35037, 32868, 30195, 21518, 15591, 17687, 19967, 18167, 19498, 28259, 38700, 45470, 48319, 45371, 35243, 27195, 33381, 47742, 51908, 45313, 41152, 34408, 14796, 0, 55, 12616, 26394, 42152, 52592, 50482, 43167, 40296, 40846, 37064, 27134, 21679, 30108, 45322, 51864]], "framecount": 0.0, "time": 1489540258739}
{"dataframe": [[31124, 30598, 30640, 31134, 31813, 32861, 34310, 35146, 34845, 34282, 33810, 32901, 31820, 31528, 32459, 33741, 33745, 32363, 30968, 30073, 29869, 31131, 33451, 35237, 35722, 35004, 33528, 32503, 32776, 33420, 33381, 33042, 32661, 31749, 30608, 29964, 29934, 30889, 33038, 35061, 35537, 34798, 33980, 33605, 33556, 33369, 32800, 32283, 32051, 31634, 31099, 31167, 31756, 32162, 32320, 32780, 33874, 34884, 34576, 33259, 32477, 32564, 32896, 33270, 33462, 33200, 32658, 31907, 30937, 30350, 30735, 31814, 33071, 34245, 34768, 34246, 33508, 33466, 33625, 33361, 33082, 33026, 32719, 31971, 31224, 30878, 30920, 31237, 31761, 32607, 34039, 35402, 35222, 33655, 32894, 33597, 33660, 32494, 32103, 32481], [36137, 38964, 39286, 37385, 34562, 31263, 27738, 25922, 27611, 31056, 33102, 33239, 32607, 32041, 32067, 32654, 33708, 35623, 38201, 39726, 38218, 34015, 29501, 26431, 25722, 27766, 31015, 33022, 33345, 33177, 32934, 32415, 32774, 35251, 37977, 38249, 36806, 35217, 32555, 28637, 26117, 26911, 29774, 32329, 33591, 33854, 33455, 32687, 32165, 32723, 34675, 37000, 38164, 37488, 34838, 30650, 27044, 26630, 29281, 32166, 33577, 33968, 33344, 31460, 29895, 30586, 33533, 37091, 39109, 38518, 36302, 33744, 30807, 27883, 27096, 29167, 31373, 31773, 31885, 32700, 32961, 32492, 32779, 34478, 36704, 38068, 37674, 35831, 33512, 30503, 26741, 25256, 28348, 32905, 34658, 33729, 32922, 32693, 31503, 31128], [30764, 29162, 29010, 29815, 30974, 32941, 35425, 36640, 36043, 35078, 34402, 33477, 32463, 31900, 31873, 32240, 32184, 30918, 29529, 29720, 31179, 32533, 33823, 35499, 36141, 34577, 32787, 32891, 33783, 33930, 33935, 34240, 33572, 31082, 28264, 27366, 28634, 30762, 33217, 35842, 37282, 36435, 34542, 33466, 33183, 32941, 32918, 33234, 33150, 31886, 29741, 28428, 29284, 31377, 33001, 34129, 35407, 35986, 34941, 33479, 32931, 32816, 32791, 33204, 33501, 33122, 32354, 31214, 29802, 29079, 29775, 31610, 33848, 35653, 36198, 35367, 34009, 32984, 32702, 33236, 33952, 33890, 32849, 31244, 29475, 28248, 28642, 30784, 33386, 35448, 36739, 36688, 35279, 33657, 32372, 31437, 31551, 32811, 33838, 33445], [33748, 34053, 34039, 33783, 33072, 31802, 30882, 31454, 32888, 33379, 32726, 32226, 32268, 32370, 32257, 31889, 32368, 34912, 37412, 36573, 33105, 30064, 28808, 29414, 31321, 33042, 33773, 33999, 33980, 33558, 32889, 32225, 31917, 32529, 33620, 33762, 33148, 33291, 33643, 32713, 31479, 31507, 32136, 32360, 32444, 32555, 32484, 32442, 32591, 32972, 33814, 34719, 34815, 34095, 33091, 31881, 30714, 30471, 31343, 32294, 32737, 33166, 33640, 33580, 33048, 32670, 32771, 33157, 33432, 33571, 33633, 33099, 31926, 31280, 31544, 31876, 32690, 34394, 34582, 32074, 30180, 31182, 33086, 34083, 34520, 34364, 33167, 32003, 32587, 34397, 34768, 32374, 28983, 27785, 30255, 34039, 35557, 34711, 33821, 33463], [36311, 38541, 38321, 36096, 33372, 30856, 28614, 27794, 29319, 31609, 32660, 32675, 32425, 31961, 31877, 33189, 35954, 38291, 37599, 34411, 31954, 31060, 30297, 29862, 30573, 31499, 31851, 32357, 33126, 33145, 32321, 31648, 32076, 33940, 36056, 36632, 35824, 34881, 33602, 31346, 29173, 28707, 29830, 31280, 32516, 33368, 33187, 31970, 31249, 32394, 34765, 36836, 37818, 37219, 34803, 31341, 28380, 27659, 29659, 32258, 33215, 32903, 32302, 31320, 30518, 31311, 34004, 37173, 38811, 37926, 35240, 32314, 30073, 28750, 28900, 30523, 32130, 32521, 31815, 30873, 30978, 32375, 33951, 35462, 37162, 37996, 37252, 35786, 33623, 29666, 25577, 25303, 28759, 31943, 33583, 34816, 34928, 33587, 32741, 33256], [32611, 32367, 32249, 32362, 32687, 32924, 32975, 33069, 33271, 33431, 33496, 33441, 33165, 32581, 31851, 31449, 31623, 32017, 32150, 32126, 32575, 33651, 34658, 35009, 34567, 33299, 31749, 31001, 31299, 31872, 32353, 32971, 33452, 33232, 32592, 32320, 32565, 32938, 33231, 33440, 33483, 33196, 32663, 32267, 32214, 32362, 32534, 32678, 32817, 32940, 32921, 32712, 32511, 32490, 32599, 32850, 33309, 33557, 33110, 32478, 32395, 32577, 32608, 32769, 33164, 33345, 33031, 32409, 31854, 31629, 31860, 32618, 33583, 34029, 33853, 33643, 33257, 32198, 31248, 31495, 32577, 33470, 33765, 33449, 32713, 32146, 32183, 32461, 32424, 32348, 32774, 33341, 33435, 33202, 32992, 32748, 32482, 32648, 33378, 33732], [22063, 24396, 30309, 36171, 40644, 43807, 43525, 37330, 29825, 28576, 31614, 32640, 32642, 33849, 33646, 29928, 24337, 21532, 24709, 30929, 36258, 41274, 45768, 44830, 37107, 30234, 29424, 30204, 29889, 31387, 33501, 32337, 28084, 23791, 23355, 28256, 34752, 39245, 42502, 44532, 41458, 33169, 27437, 28471, 30912, 31569, 33165, 34913, 32755, 26856, 22396, 23870, 29548, 34810, 39299, 44072, 45180, 38881, 30655, 28535, 30608, 31049, 31128, 33177, 34126, 30939, 25219, 22176, 25291, 31707, 36984, 41155, 44830, 44061, 36456, 28756, 27944, 30410, 31036, 31883, 34005, 33829, 29619, 24269, 22882, 27067, 33092, 38203, 42756, 45146, 41570, 33162, 27734, 28963, 31387, 31539, 32141, 33450, 32196, 27732], [43731, 27692, 13267, 6119, 7666, 14470, 23351, 35918, 49330, 54509, 51995, 51131, 52388, 49774, 42720, 31473, 15566, 3210, 3275, 10055, 15665, 24760, 39649, 49796, 48674, 44359, 45252, 47760, 45741, 40984, 36496, 31727, 26954, 21170, 12365, 6005, 10705, 23863, 35831, 45516, 54974, 57175, 47178, 32853, 22432, 17535, 22141, 38367, 54104, 55014, 44009, 31430, 18499, 6896, 5694, 16290, 29345, 37859, 39210, 33640, 29034, 35253, 49826, 60654, 62958, 59088, 45983, 21785, 0, 0, 0, 6646, 23669, 42704, 54765, 53457, 48839, 51424, 53352, 46194, 37291, 33286, 30142, 25745, 22365, 17385, 8879, 4829, 13178, 31472, 50255, 57704, 49515, 37252, 33332, 36231, 40710, 46136, 49321, 44381]], "framecount": 1.0, "time": 1489540258942}
{"dataframe": [[31984, 31251, 31176, 31073, 31333, 32572, 33638, 34053, 34458, 34291, 33177, 32547, 33137, 33799, 33870, 33656, 32893, 31544, 30591, 30261, 30107, 30817, 32889, 34906, 35376, 34489, 33342, 32753, 32709, 32846, 33251, 33854, 33967, 33231, 31881, 30484, 29920, 30482, 31553, 32782, 34114, 34833, 34494, 33885, 33434, 32761, 32458, 33281, 34144, 33668, 32271, 31057, 30372, 30336, 31048, 32092, 33144, 34194, 34778, 34593, 34073, 33425, 32790, 32718, 33105, 33337, 33142, 32229, 30858, 30147, 30418, 31137, 32288, 33923, 35208, 35244, 34341, 33511, 33052, 32754, 32682, 32790, 32696, 32255, 31636, 31014, 30777, 31338, 32399, 33391, 34280, 34841, 34400, 33215, 32444, 32426, 32720, 33297, 33946, 33690], [34403, 38417, 38964, 37065, 34599, 31315, 28184, 27183, 28622, 31117, 32902, 33177, 32557, 32046, 31876, 31911, 32989, 35725, 38305, 38619, 36922, 34141, 30628, 27607, 26887, 28655, 31159, 32740, 33269, 33267, 32771, 32054, 32148, 33786, 36386, 38159, 37704, 35601, 32986, 29826, 27045, 27337, 30496, 32529, 32315, 32640, 33702, 33043, 31104, 31114, 34282, 38037, 39242, 37672, 35116, 32192, 28529, 26001, 27409, 31094, 32843, 32658, 32894, 33128, 32463, 31870, 32496, 34998, 38390, 39769, 37845, 34068, 29958, 26543, 25561, 28177, 32214, 33913, 33103, 32476, 32631, 32479, 32627, 34411, 36989, 38246, 37433, 35098, 32067, 29116, 26966, 27221, 30543, 33615, 33526, 32471, 32733, 32840, 31697, 31160], [31778, 29910, 29080, 29839, 31633, 33620, 35407, 36236, 35280, 33584, 32877, 32887, 32797, 33055, 33726, 33808, 32584, 30455, 28890, 29006, 30270, 31872, 33946, 35981, 36363, 34961, 33637, 33342, 33311, 33077, 33001, 33224, 33122, 31793, 29573, 28275, 28962, 30910, 33248, 35648, 37102, 36348, 34185, 32858, 32790, 32715, 32398, 32596, 33291, 33304, 31693, 29596, 29151, 30354, 31619, 32900, 34890, 36222, 35344, 33775, 33500, 33709, 33496, 33494, 33377, 32476, 31426, 30340, 28915, 28443, 29962, 32413, 34769, 36715, 37170, 35660, 33800, 32927, 32675, 32688, 32896, 32720, 31869, 30677, 29676, 29553, 30464, 31873, 33550, 35426, 36572, 35770, 33544, 32165, 32492, 33090, 33195, 33416, 33709, 33159], [33123, 33345, 33960, 33499, 32146, 31417, 31196, 30959, 31540, 32880, 33628, 33657, 33595, 33220, 32482, 32130, 32504, 33143, 33604, 33743, 33509, 33040, 32516, 31927, 31564, 31879, 32493, 32672, 32587, 32707, 32749, 32502, 32634, 33540, 34516, 34739, 34057, 32842, 31646, 30863, 30858, 31709, 32609, 32912, 32954, 32993, 33144, 33599, 33736, 33136, 32807, 33126, 33064, 32586, 32581, 32694, 32109, 31423, 31633, 32246, 32450, 33149, 34924, 35850, 34530, 32137, 30065, 29461, 31199, 33530, 34100, 33739, 33796, 33641, 33148, 33040, 32987, 32335, 31341, 30744, 31208, 32623, 33882, 34303, 34227, 33846, 33113, 32380, 31948, 31850, 32265, 33141, 33687, 33242, 32345, 31918, 31853, 31666, 31776, 32690], [34378, 35838, 36820, 35821, 33314, 30980, 29069, 28004, 29287, 32025, 33389, 33156, 32898, 32682, 32170, 32169, 33408, 35386, 36709, 36514, 35293, 33566, 31115, 28829, 28668, 30454, 31999, 32564, 32696, 32355, 31796, 31838, 32803, 34493, 36224, 37069, 36661, 35228, 33107, 30500, 28223, 27991, 29980, 31993, 32779, 33065, 33132, 32683, 32193, 32553, 34244, 36570, 37726, 36798, 34580, 31826, 28857, 27067, 28073, 31150, 33872, 34839, 34115, 32293, 30446, 30166, 32300, 35597, 37831, 38055, 36712, 34300, 31100, 28259, 27718, 29655, 31740, 32332, 32076, 31979, 32433, 33508, 34680, 35278, 35243, 34893, 34687, 34673, 33745, 31214, 28754, 28588, 30497, 32456, 33359, 33421, 32803, 31700, 31089, 32055], [32910, 31681, 31254, 31663, 32273, 32808, 33332, 33733, 33705, 33366, 33139, 33000, 32743, 32513, 32496, 32600, 32566, 32248, 31922, 31981, 32378, 32788, 33132, 33573, 33925, 33659, 32988, 32846, 33160, 32850, 32057, 31950, 32288, 32014, 31590, 32010, 32811, 33268, 33775, 34424, 34282, 33213, 32353, 32221, 32195, 31981, 32012, 32488, 33105, 33378, 32977, 32289, 32122, 32459, 32663, 32838, 33396, 33795, 33387, 32779, 32804, 33009, 32658, 32145, 32087, 32311, 32589, 32880, 32748, 32193, 32223, 33069, 33664, 33699, 33631, 33089, 32090, 31995, 33032, 33589, 32959, 32119, 31881, 32033, 32143, 32262, 32569, 33016, 33510, 33944, 34094, 33689, 32773, 32000, 31921, 32239, 32413, 32389, 32578, 33200], [23767, 24690, 30273, 36238, 40304, 43124, 43212, 37446, 29258, 26866, 30100, 32160, 32669, 34431, 34962, 31296, 25456, 22428, 25169, 31469, 37258, 41356, 44076, 43025, 35960, 28164, 26989, 30093, 31688, 32918, 35030, 34464, 29790, 24388, 22833, 26789, 33261, 38362, 41666, 43834, 41722, 33589, 26896, 28148, 32062, 33098, 33666, 34627, 32710, 27408, 22651, 23078, 28733, 34982, 39351, 43026, 44537, 39855, 31471, 27739, 29693, 31090, 31422, 33626, 34704, 31278, 26150, 23850, 25865, 30691, 35708, 39624, 42715, 42935, 37174, 29730, 28303, 31103, 32191, 32672, 34443, 34376, 30167, 24204, 21909, 25897, 32219, 36864, 40946, 44797, 43610, 35488, 28140, 28039, 30939, 32339, 33692, 34387, 31948, 27360], [31775, 17450, 4849, 0, 0, 14933, 38098, 54681, 57816, 52827, 47975, 44743, 42490, 42800, 43113, 37208, 24337, 10078, 911, 1084, 10588, 25817, 42521, 54645, 55798, 49339, 45359, 43638, 37623, 30404, 28008, 28880, 30271, 29856, 23532, 15471, 16691, 25443, 29817, 31117, 38560, 45908, 43337, 39592, 44009, 48396, 45948, 41516, 36600, 26945, 13916, 4872, 4094, 9628, 18661, 31399, 47601, 61113, 63934, 57669, 49783, 40208, 28059, 20790, 21134, 21817, 19499, 17368, 17392, 20967, 29148, 38500, 45035, 48830, 47963, 39071, 28627, 27235, 33004, 37731, 41370, 45066, 42783, 31628, 18539, 10516, 8359, 11862, 21660, 35686, 48641, 54287, 50799, 44327, 40890, 39109, 36809, 35242, 33895, 29815]], "framecount": 2.0, "time": 1489540259067}
{"dataframe": [[32292, 30969, 30594, 30678, 30975, 32185, 34031, 34886, 34354, 33790, 33759, 33528, 33016, 32773, 32743, 32692, 32459, 31751, 31050, 31094, 31489, 31830, 32518, 33596, 34527, 34795, 34222, 33286, 32771, 32829, 32973, 33037, 33192, 32984, 31908, 30636, 30254, 30953, 32149, 33119, 33550, 33837, 34277, 34340, 33796, 33456, 33626, 33582, 33103, 32467, 31636, 30928, 30742, 30538, 30443, 31846, 34284, 35457, 34948, 33991, 33091, 32550, 32888, 33672, 33946, 33672, 33240, 32375, 30721, 28865, 28310, 30085, 33197, 35598, 36401, 35910, 34682, 33449, 32640, 32065, 31818, 32288, 32987, 32870, 31872, 31018, 31018, 31499, 32026, 33046, 34499, 34936, 33891, 32787, 32434, 32561, 33165, 33896, 33908, 33283], [33407, 37550, 39869, 38521, 35327, 31619, 27700, 26085, 28307, 31265, 32381, 32880, 33312, 32586, 31438, 31633, 33454, 36044, 38155, 38787, 37501, 34096, 29814, 27210, 27202, 28685, 30692, 32702, 33718, 33206, 32394, 32200, 32113, 33065, 36192, 38989, 38585, 35705, 32162, 29234, 28341, 29292, 30238, 30873, 32079, 33072, 32667, 31575, 31105, 32123, 35038, 37913, 38163, 37337, 37043, 33989, 28021, 25309, 27523, 30142, 31429, 32809, 34114, 34151, 32724, 31083, 31570, 34714, 37688, 38554, 38082, 35885, 31199, 26839, 26157, 28431, 31047, 32839, 33673, 33655, 32994, 31819, 31118, 32562, 35824, 38361, 38591, 36835, 33735, 30071, 27421, 27275, 29333, 31803, 33289, 33434, 32542, 31423, 31119, 32330], [31345, 29228, 28475, 29551, 31506, 33693, 35827, 36716, 35561, 33774, 32923, 32645, 32480, 32975, 33859, 33906, 32704, 30852, 29194, 28505, 29245, 31383, 34179, 36297, 36724, 35579, 33995, 33075, 32971, 33182, 33156, 32763, 32332, 31600, 30120, 29000, 29607, 31426, 33317, 34921, 35881, 35704, 34576, 33227, 32274, 32072, 32637, 33536, 34164, 33793, 31942, 29732, 29016, 29658, 30683, 32598, 35163, 36223, 35297, 34341, 34043, 33281, 32206, 32259, 33350, 33923, 33078, 31075, 29155, 28787, 30002, 31786, 33853, 35898, 36481, 35130, 33545, 32822, 32441, 32486, 33307, 34023, 33736, 32373, 30372, 28961, 29107, 30405, 32360, 34618, 36016, 35845, 34642, 33135, 32220, 32562, 33480, 34073, 34248, 33543], [33846, 34451, 34531, 34232, 33268, 31945, 31233, 31413, 32080, 32899, 33433, 33293, 32696, 32099, 31742, 31801, 32411, 33422, 34404, 34901, 34457, 32836, 31055, 30925, 32348, 33305, 33128, 32771, 32280, 31491, 31719, 33199, 33778, 33001, 32834, 33453, 33630, 33666, 33912, 33624, 32620, 31172, 29865, 30213, 32266, 33609, 33338, 33144, 33538, 33627, 33753, 34269, 34184, 33352, 32659, 31956, 31062, 30930, 31462, 31516, 31726, 33164, 34499, 34413, 33755, 33171, 32544, 32393, 32680, 32730, 33064, 33956, 33969, 32593, 31406, 31285, 31542, 32000, 32646, 32538, 32101, 32897, 34115, 34249, 33998, 33860, 33271, 32597, 32323, 32163, 32013, 31894, 32001, 32558, 32863, 32558, 32553, 32795, 32434, 32330], [34434, 36666, 37448, 36665, 34579, 31797, 29582, 28921, 29806, 31278, 32156, 32228, 32087, 32098, 32284, 32630, 33421, 35095, 36960, 37388, 35978, 33785, 31436, 29149, 28216, 29535, 31323, 31785, 32121, 33346, 33785, 32715, 32163, 33386, 35233, 36421, 36810, 36291, 34087, 30282, 27366, 27804, 30262, 31809, 32500, 33470, 33756, 32899, 32337, 32845, 34447, 36887, 38013, 35805, 32069, 29718, 28698, 28560, 30353, 33066, 34140, 33767, 33308, 32490, 31416, 31130, 32033, 34194, 36776, 37492, 35666, 33366, 31593, 29635, 28719, 30448, 32618, 32704, 32022, 32066, 32257, 32444, 32804, 33345, 34768, 36644, 37015, 35535, 33367, 30877, 28731, 28673, 30673, 32289, 32477, 32588, 32932, 32402, 31489, 31977], [33497, 32811, 32152, 32406, 32594, 32280, 32621, 33537, 33622, 33119, 33187, 33264, 32597, 32172, 32536, 32720, 32470, 32398, 32383, 32199, 32265, 32688, 33170, 33654, 33909, 33510, 32731, 32287, 32360, 32600, 32673, 32658, 32845, 33003, 32656, 32129, 32154, 32647, 32891, 32666, 32538, 32961, 33487, 33517, 33281, 33210, 33238, 33201, 32921, 32201, 31328, 30996, 31500, 32328, 32913, 33379, 33830, 33964, 33862, 33710, 33206, 32413, 31943, 31962, 32266, 32743, 33031, 32820, 32452, 32234, 32027, 31958, 32454, 33415, 34038, 33920, 33682, 33565, 32937, 32084, 31974, 32275, 32216, 32128, 32321, 32424, 32472, 32797, 33277, 33595, 33545, 33221, 33020, 32950, 32687, 32393, 32435, 32625, 32578, 32434], [23463, 23347, 28280, 34911, 39449, 42348, 43795, 40168, 32192, 28011, 30104, 32121, 32107, 33046, 33733, 31206, 26376, 23282, 24995, 29877, 34720, 39657, 44526, 44815, 37876, 29791, 27887, 30048, 31256, 32621, 34857, 34466, 30165, 24645, 22157, 25242, 31470, 37036, 41628, 44977, 43047, 34792, 28124, 28989, 31982, 32096, 32501, 34368, 33696, 28897, 23282, 22102, 27018, 33622, 38096, 41883, 44863, 41793, 33096, 28245, 30159, 31641, 31043, 32581, 34474, 32403, 27184, 23049, 23930, 29627, 35655, 39661, 42925, 43821, 38425, 30284, 27801, 30329, 31608, 32369, 34751, 35015, 30727, 24991, 22480, 25249, 30941, 36147, 40480, 43982, 43168, 36140, 29340, 29175, 31877, 32519, 33039, 34146, 32505, 27265], [22080, 13863, 10343, 13758, 21832, 31888, 42951, 51970, 52624, 43281, 32308, 29312, 34663, 41922, 46591, 47495, 41407, 25709, 7928, 0, 2716, 11652, 27017, 46600, 58047, 53732, 42573, 35896, 34255, 35759, 41328, 47299, 46541, 36793, 22034, 9510, 5014, 8269, 16008, 27711, 41840, 50654, 48793, 42653, 40946, 42845, 44079, 44647, 44026, 38278, 26326, 13280, 5003, 3751, 9912, 22455, 37607, 49706, 53382, 48714, 42774, 40208, 38742, 37453, 38688, 40391, 36289, 25042, 13145, 7246, 8633, 16213, 29052, 43933, 53497, 51928, 43600, 38117, 37085, 36687, 37512, 40220, 39993, 32799, 20929, 10686, 7252, 11265, 20305, 32735, 46193, 53806, 50733, 42965, 38734, 37155, 35596, 36474, 39359, 38288]], "framecount": 3.0, "time": 1489540259145}
{"dataframe": [[32579, 31611, 30479, 30306, 31353, 32342, 32968, 33991, 34568, 33761, 32994, 33270, 33611, 33694, 33918, 33814, 32969, 31658, 30266, 29433, 29884, 31533, 33372, 34545, 35055, 34934, 34026, 32993, 32652, 32779, 32973, 33231, 33189, 32537, 31779, 31349, 31054, 31019, 31719, 32855, 33580, 33776, 33914, 33936, 33473, 32999, 33226, 33733, 33817, 33508, 32680, 31221, 30116, 30203, 30994, 31997, 33265, 34332, 34506, 33994, 33488, 33235, 33271, 33566, 33638, 33212, 32783, 32428, 31452, 30221, 30129, 31130, 32080, 33097, 34520, 35176, 34377, 33397, 33338, 33729, 33720, 33104, 32424, 32112, 31400, 30095, 30071, 31840, 33229, 33576, 34118, 34526, 33908, 32948, 32276, 31902, 32449, 33866, 34666, 34192], [34689, 37035, 38366, 37806, 35385, 32702, 30231, 27488, 26888, 30022, 32880, 32737, 32421, 32938, 32089, 30812, 31833, 34960, 38328, 39988, 38459, 34914, 31614, 28324, 25367, 26133, 30691, 33824, 33587, 33077, 33115, 32164, 31417, 33002, 36070, 38236, 38237, 36300, 33557, 30815, 28360, 27353, 28757, 31185, 32756, 33162, 32730, 32064, 31673, 31717, 33496, 37425, 40045, 38602, 35151, 32103, 29280, 27252, 27695, 29880, 31717, 32870, 33258, 32351, 31481, 32193, 33669, 35091, 37066, 38726, 37570, 34073, 31347, 29432, 27175, 27223, 30812, 33708, 33350, 32160, 31878, 31669, 31338, 32531, 36296, 39917, 39563, 36247, 33386, 30758, 27445, 26001, 28129, 31465, 33540, 34165, 33622, 32212, 31000, 31397], [31531, 29441, 28774, 29408, 30705, 32565, 34688, 36156, 36006, 34480, 33260, 33150, 33207, 33169, 33636, 33919, 32882, 30826, 28878, 28066, 28903, 30914, 33463, 36268, 37898, 36720, 34181, 33001, 32911, 32444, 32185, 32790, 33136, 32141, 30263, 29019, 29478, 31068, 32634, 34182, 35867, 36415, 34948, 33024, 32557, 33188, 33460, 33209, 33277, 33285, 31766, 29249, 28361, 29879, 31841, 33098, 34409, 35687, 35654, 34449, 33424, 32979, 32927, 33283, 33718, 33719, 32865, 31029, 29195, 28710, 29754, 31524, 33275, 34925, 36194, 35882, 34104, 32997, 33232, 33453, 33378, 33564, 33369, 31917, 29810, 28642, 29255, 30962, 32547, 33799, 35323, 36453, 35536, 33181, 31990, 32694, 33758, 34234, 34231, 33410], [33455, 34439, 34029, 33270, 33100, 32908, 32386, 31993, 31874, 31924, 31978, 31956, 32365, 33408, 34030, 33442, 32404, 32071, 32703, 33579, 33938, 33874, 33388, 32200, 31483, 32296, 33003, 32304, 31682, 31959, 32052, 31816, 32193, 33611, 35510, 36199, 34581, 32193, 31144, 31291, 31640, 32179, 32761, 32635, 31899, 31698, 32699, 33941, 33815, 32713, 32746, 33907, 33988, 32713, 32262, 33395, 33718, 31648, 29844, 30982, 33318, 34231, 34079, 33779, 32513, 30515, 30428, 32775, 34593, 34684, 34548, 34336, 33264, 31953, 31167, 30850, 31138, 32127, 33144, 33437, 32999, 32466, 32576, 33407, 34072, 33872, 33334, 33055, 32800, 32486, 32271, 31914, 31669, 32234, 32790, 31907, 30810, 31783, 34044, 35429], [34120, 36293, 37086, 36615, 35411, 33197, 30197, 28207, 28604, 30541, 32150, 32530, 32144, 31912, 32267, 33230, 34796, 36241, 36305, 35155, 34157, 33460, 32045, 29946, 28913, 30156, 32195, 32924, 32665, 32519, 32137, 31395, 31350, 32776, 35515, 38144, 38481, 36225, 33257, 30546, 28135, 27403, 29185, 31559, 32754, 33291, 33675, 33392, 32644, 32605, 33788, 35273, 36070, 36387, 36323, 34488, 30170, 26089, 25944, 29388, 32781, 34329, 34787, 34555, 33495, 32241, 31959, 33379, 35727, 36871, 35729, 33598, 31746, 29834, 28302, 28852, 31213, 33334, 34338, 34147, 32849, 31689, 31666, 32484, 33954, 35676, 36524, 36080, 34627, 32211, 29638, 28724, 29890, 31446, 32181, 32347, 32336, 32337, 32368, 32553], [32509, 32573, 32471, 32664, 33097, 33150, 33022, 33078, 32847, 32467, 32757, 33255, 33094, 32717, 32647, 32657, 32691, 32711, 32402, 31937, 31946, 32477, 32953, 33311, 33835, 33977, 33229, 32382, 32219, 32515, 32975, 33323, 33038, 32267, 31701, 31486, 31675, 32552, 33653, 34151, 33973, 33398, 32667, 32211, 32220, 32512, 32960, 33314, 33290, 33053, 32727, 32117, 31536, 31695, 32418, 32818, 32780, 32928, 33321, 33546, 33570, 33538, 33437, 33234, 32899, 32440, 31972, 31663, 31579, 31676, 32038, 32586, 33010, 33545, 34317, 34393, 33512, 32842, 32747, 32573, 32334, 32306, 32323, 32154, 31764, 31732, 32515, 33170, 33041, 33096, 33678, 33890, 33537, 33031, 32573, 32463, 32687, 32750, 32609, 32461], [22018, 21835, 27783, 35110, 39990, 43408, 45416, 41867, 32569, 26051, 27343, 30689, 31905, 33540, 35232, 33244, 27845, 23468, 23901, 28820, 34735, 39281, 42699, 43999, 39661, 31298, 27227, 29499, 31706, 32178, 33933, 35165, 31981, 25606, 21737, 24172, 30643, 36690, 41120, 44298, 43586, 36694, 29054, 27677, 30213, 31807, 33459, 35267, 34233, 29803, 24268, 21713, 25041, 31744, 37605, 42025, 44891, 42673, 34718, 28691, 29484, 31581, 31547, 32833, 34823, 32947, 27234, 22282, 22383, 27689, 34469, 39781, 43537, 44835, 40523, 32336, 28416, 30547, 31968, 31218, 32159, 33387, 30876, 25436, 21972, 24301, 30999, 37320, 41425, 44562, 44664, 38142, 29666, 27382, 29681, 31067, 32374, 34171, 33182, 28678], [30045, 18464, 10329, 9300, 14494, 24163, 37138, 48799, 51770, 45922, 39817, 38033, 37829, 38248, 40329, 41124, 35956, 24532, 12425, 6439, 8552, 16388, 28189, 42458, 53336, 54034, 46785, 40332, 37427, 35528, 35314, 37597, 38216, 32846, 22487, 12651, 8659, 11736, 20183, 32628, 46107, 53429, 50430, 42959, 38159, 35973, 35382, 37572, 40360, 38838, 30746, 18696, 9091, 7134, 12766, 23291, 36774, 49478, 54574, 49488, 40598, 35481, 35209, 37029, 39302, 40950, 38396, 28256, 14844, 7361, 8480, 14904, 25763, 40407, 52022, 53092, 45936, 39407, 36864, 36267, 37515, 40678, 41714, 35710, 23149, 11088, 6192, 8826, 16717, 29384, 44553, 54267, 52184, 43723, 38853, 38170, 37600, 38079, 40281, 39468]], "framecount": 4.0, "time": 1489540259255}
{"dataframe": [[33067, 31718, 30626, 30368, 30752, 31497, 32808, 34221, 34599, 33988, 33544, 33426, 33094, 32976, 33353, 33440, 33005, 32326, 31293, 30663, 31240, 31874, 31933, 32763, 34191, 34357, 33435, 32985, 33115, 33386, 34014, 34568, 34089, 32689, 31166, 29992, 29500, 29957, 31429, 33629, 35206, 34853, 33803, 33817, 33876, 33076, 32861, 33411, 33315, 32738, 32203, 31212, 30320, 30548, 31426, 32459, 33857, 34954, 34760, 33712, 32772, 32034, 31803, 32815, 34297, 34698, 34041, 32920, 31334, 30029, 30038, 30931, 31845, 32937, 34334, 35042, 34351, 33349, 33099, 32940, 32750, 33495, 34266, 33397, 31811, 30997, 30431, 29881, 30571, 32535, 34205, 34822, 34685, 34141, 33777, 33725, 33272, 32640, 32692, 32860], [33966, 37166, 38515, 37563, 35680, 33401, 30303, 27248, 26609, 29015, 32048, 33801, 34298, 33302, 31299, 30531, 31822, 34241, 37290, 39455, 38557, 35487, 32384, 29070, 26289, 26904, 30241, 32477, 33068, 33475, 32872, 31164, 31039, 33614, 36668, 38143, 38113, 37122, 34817, 30788, 26675, 26074, 29543, 32682, 32845, 32299, 32569, 32364, 31452, 31543, 33720, 36903, 38793, 38263, 35955, 32887, 30009, 28237, 28014, 29271, 31346, 32993, 33268, 32427, 31466, 31102, 31931, 34410, 37462, 39049, 38423, 35999, 32590, 29289, 26941, 26903, 29906, 32748, 32465, 32022, 33480, 33019, 30532, 31812, 36662, 38944, 38013, 37112, 35299, 31031, 27127, 26345, 28262, 31365, 33531, 33361, 32407, 32136, 31769, 31785], [31395, 29227, 28455, 29204, 30614, 32359, 34495, 36375, 36698, 35219, 33450, 32578, 32453, 32988, 34009, 34357, 33196, 30955, 28606, 27418, 28475, 31272, 34168, 36332, 37418, 36608, 34379, 32785, 32378, 32157, 32279, 33244, 33786, 32551, 30582, 29778, 30122, 30579, 31071, 32186, 34258, 36307, 36242, 34306, 33524, 34387, 34259, 33068, 32797, 32585, 30916, 29300, 29177, 29766, 30773, 32422, 33744, 34556, 35667, 36134, 35037, 33964, 33891, 33599, 32832, 32487, 31967, 30467, 29166, 29076, 29665, 30851, 32994, 35484, 37064, 36574, 34441, 33071, 33390, 33507, 32701, 32662, 33327, 32270, 29563, 28129, 28892, 30531, 32612, 35005, 36682, 36905, 35612, 33364, 31733, 31749, 32565, 33256, 33950, 34051], [35751, 35291, 33767, 32032, 31191, 30868, 30506, 30432, 31066, 32541, 34345, 35323, 35186, 34414, 32721, 30620, 30587, 32903, 34180, 33423, 33192, 33310, 31926, 30847, 31859, 33110, 33421, 33581, 33357, 32492, 32012, 32191, 32686, 33815, 34525, 32899, 30530, 30765, 32996, 34317, 34200, 33730, 33537, 33551, 32709, 30712, 29532, 30269, 31763, 33303, 34651, 35340, 35652, 35251, 33236, 31171, 31081, 31697, 31483, 31442, 32163, 32787, 33058, 33110, 32863, 32699, 32999, 33443, 33683, 33867, 34005, 33646, 32689, 31616, 31012, 31315, 32244, 32818, 32603, 32495, 33307, 33588, 32118, 31518, 33587, 35174, 34068, 32554, 32521, 33069, 32941, 32153, 31760, 32118, 32255, 32086, 32531, 32981, 32258, 31470], [33817, 36250, 37708, 36744, 34482, 32137, 30009, 28959, 29655, 31013, 31821, 32372, 32794, 32480, 31906, 32029, 32837, 34200, 35915, 37135, 37248, 35840, 32661, 29113, 27650, 29003, 31268, 32272, 32192, 32320, 32468, 32073, 32036, 33408, 35686, 37430, 37698, 36325, 33729, 30873, 28692, 27977, 29260, 31359, 32288, 32432, 33075, 33253, 32328, 32209, 34018, 36334, 37500, 36797, 34481, 32035, 30570, 29580, 28956, 29689, 31331, 32286, 32612, 33100, 33152, 32470, 32647, 34684, 36817, 37077, 35957, 34403, 32054, 29241, 27797, 28758, 31037, 32926, 33741, 33554, 32713, 31893, 31637, 32425, 34598, 36932, 37357, 35832, 33905, 31978, 29754, 28331, 29036, 31095, 32725, 33368, 33323, 32651, 31564, 31147], [32140, 31811, 31897, 32197, 32496, 33157, 34156, 34775, 34461, 33190, 31557, 30732, 31349, 32580, 33351, 33781, 34010, 33236, 31746, 31294, 32095, 32778, 33075, 33393, 33395, 32999, 32811, 32938, 32914, 32723, 32754, 32921, 32823, 32520, 32346, 32305, 32248, 32293, 32408, 32446, 32910, 33942, 34338, 33561, 32759, 32515, 32288, 32241, 32710, 32890, 32424, 32160, 32283, 32303, 32490, 33117, 33549, 33475, 33333, 33105, 32501, 32013, 32189, 32717, 33200, 33606, 33645, 33068, 32291, 31701, 31379, 31595, 32273, 32989, 33788, 34340, 33764, 32741, 32819, 33286, 32803, 32367, 32628, 32336, 31699, 31973, 32412, 32281, 32668, 33648, 33919, 33500, 33080, 32570, 32246, 32556, 32999, 33240, 33447, 33223], [23666, 22427, 26960, 33877, 39117, 42820, 45045, 42142, 33560, 26940, 27521, 30384, 31550, 33448, 35569, 33929, 28427, 23295, 23078, 28066, 34150, 38815, 42690, 44362, 40071, 31642, 27392, 29613, 31983, 32521, 34198, 35145, 31621, 25410, 21932, 24203, 30146, 36019, 40562, 43785, 43614, 37750, 30103, 27923, 30594, 32157, 32363, 33634, 33836, 30051, 24500, 22880, 26903, 32496, 36900, 40941, 43946, 42283, 34969, 28319, 28343, 31522, 32654, 33315, 34682, 33477, 28298, 22844, 22310, 27340, 33651, 38569, 42760, 45033, 41545, 33122, 27565, 28791, 31656, 32409, 32966, 33798, 32236, 27143, 22332, 23433, 29910, 36079, 40109, 43748, 44717, 38883, 30009, 26653, 29033, 31136, 32290, 34537, 35631, 32372], [31593, 19289, 9577, 7125, 11476, 20590, 33779, 47892, 54505, 49903, 42296, 38571, 36141, 34866, 38333, 42354, 39158, 28605, 16570, 8860, 8500, 14356, 23926, 36588, 48848, 52603, 46592, 40098, 38816, 39231, 38665, 38782, 39549, 36534, 26079, 12695, 5719, 8212, 16777, 29237, 43448, 52632, 51483, 44424, 39375, 37492, 36597, 37296, 39597, 39839, 33148, 19465, 8664, 10199, 18389, 24049, 31083, 42770, 49347, 45627, 40278, 38894, 38425, 38520, 41004, 42976, 39883, 30245, 17120, 7452, 6124, 11921, 22257, 36285, 49532, 53743, 48304, 42135, 39798, 38296, 37262, 38572, 39520, 35180, 24699, 13238, 7513, 9590, 17500, 29470, 43105, 52162, 50824, 42663, 36851, 35747, 36397, 38645, 42192, 42811]], "framecount": 5.0, "time": 1489540259349}
{"dataframe": [[32380, 31726, 30974, 30033, 30228, 32058, 33691, 34284, 35038, 35762, 34896, 32897, 31679, 31692, 32149, 32679, 33241, 33395, 32727, 31615, 30759, 30364, 30682, 32234, 34390, 35442, 34958, 34113, 33619, 33226, 32848, 32795, 33052, 32941, 31913, 30594, 30105, 30554, 31518, 32981, 34369, 34625, 34085, 33901, 33894, 33346, 32778, 32915, 33223, 33064, 32741, 32311, 31288, 30082, 29944, 31394, 33473, 34586, 34315, 33775, 33637, 33332, 32812, 33024, 34042, 34596, 33870, 32271, 30673, 29847, 29868, 30283, 31386, 33574, 35427, 35237, 33981, 33667, 33950, 33542, 32882, 32860, 33214, 33057, 31783, 30193, 29933, 30875, 31685, 32552, 34058, 35210, 35059, 34000, 32812, 32173, 32548, 33510, 33990, 33582], [33765, 36633, 38256, 38384, 37011, 33632, 29469, 26876, 26725, 28709, 31859, 33895, 33635, 32765, 32571, 32352, 32301, 33668, 35957, 37564, 37786, 36289, 33177, 29569, 27030, 27165, 29933, 32618, 33293, 33104, 33036, 32198, 31045, 31911, 34978, 37716, 38503, 37574, 35086, 31310, 28354, 28202, 29394, 29750, 30541, 33006, 34320, 32601, 30943, 31804, 33789, 35837, 37881, 38689, 37364, 34251, 30193, 27146, 27043, 29165, 31227, 32420, 33198, 33338, 32325, 31068, 31643, 34597, 37522, 38203, 37580, 36766, 34226, 29450, 25848, 26495, 29754, 31843, 31973, 32500, 34115, 34141, 31926, 31598, 35170, 38390, 38042, 36302, 34823, 32350, 28823, 26343, 26859, 30049, 33161, 34200, 33703, 32703, 31861, 31867], [32290, 29681, 28807, 29649, 30510, 31758, 34167, 36386, 36901, 35682, 33675, 32337, 32414, 32917, 32921, 32983, 32980, 31675, 29709, 28931, 29556, 31218, 33740, 35897, 36500, 35721, 34254, 32750, 31865, 31908, 32612, 33485, 34053, 33549, 31711, 29838, 29169, 29592, 30992, 33216, 35161, 35932, 35664, 34729, 33459, 32554, 32732, 33601, 33838, 32998, 31704, 30251, 28865, 28520, 29946, 32479, 34836, 36344, 36642, 35550, 33969, 33097, 32801, 32558, 32594, 32759, 32287, 31251, 30495, 30221, 30124, 30549, 32095, 34417, 36259, 36455, 35134, 33774, 33187, 32750, 32394, 32682, 32936, 32213, 31044, 30255, 29958, 30348, 31455, 32764, 34265, 35825, 36154, 34958, 33669, 33081, 32987, 32978, 32694, 32506], [32576, 34907, 35745, 34370, 33032, 32939, 32308, 30397, 29750, 31589, 33298, 33286, 33355, 34419, 34616, 32880, 31081, 31244, 32726, 33873, 34086, 33162, 31726, 31572, 32802, 33465, 33095, 32884, 32966, 32684, 32205, 31913, 31615, 31638, 32724, 34175, 34813, 34773, 34118, 32667, 31576, 31620, 31741, 31572, 32003, 32692, 32880, 33247, 33551, 32416, 31365, 32736, 34523, 34021, 32925, 33511, 34410, 33723, 32144, 30970, 30464, 30792, 31787, 32519, 32804, 33218, 33578, 33785, 34403, 34938, 34394, 33250, 32297, 31241, 30348, 30853, 32410, 33164, 32915, 32792, 32624, 32234, 32745, 33779, 33770, 33553, 34278, 34278, 32815, 31821, 31622, 31193, 31239, 32166, 33014, 33354, 33012, 32297, 32340, 32911], [32715, 35684, 37518, 37222, 36017, 34080, 30794, 27685, 27382, 30211, 33702, 35119, 33916, 31716, 30042, 29381, 30490, 33727, 37270, 38966, 38491, 36333, 33064, 29781, 27906, 28429, 30571, 32048, 32138, 32029, 31987, 31630, 31708, 33148, 35664, 37763, 38066, 36788, 34743, 31819, 28510, 27138, 28877, 31417, 32297, 32173, 32295, 32189, 32197, 33882, 36218, 36545, 35430, 35106, 34926, 33255, 30606, 28365, 27965, 30200, 32986, 33643, 33095, 33232, 33158, 32029, 31576, 33181, 35515, 36562, 36113, 34978, 33213, 30800, 28939, 29046, 30748, 32226, 32750, 32977, 32825, 31918, 31300, 32176, 34421, 36942, 38067, 36775, 34109, 31578, 29405, 28229, 29255, 31453, 32685, 32795, 32505, 32022, 31793, 32331], [32413, 31724, 31434, 31407, 31950, 32985, 33712, 33890, 33932, 33849, 33512, 33130, 32609, 31768, 31275, 31819, 32769, 33075, 32798, 32474, 32229, 32450, 33304, 33859, 33614, 33244, 32996, 32606, 32373, 32476, 32546, 32689, 33081, 33032, 32233, 31649, 31929, 32475, 32843, 33323, 33728, 33574, 33266, 33235, 32958, 32303, 32110, 32479, 32594, 32585, 33076, 33364, 32660, 31744, 31586, 32158, 33010, 33611, 33700, 33567, 33333, 32884, 32584, 32738, 32973, 32810, 32193, 31692, 32032, 32824, 32858, 32082, 31908, 33009, 34169, 34215, 33617, 33220, 32991, 32644, 32230, 31965, 32037, 32330, 32431, 32331, 32485, 32791, 32698, 32559, 33248, 34309, 34339, 33250, 32296, 32073, 32214, 32479, 32739, 32764], [25912, 21923, 24483, 30543, 35448, 39762, 44326, 44446, 37173, 29490, 28646, 31100, 31840, 32616, 33973, 32794, 28415, 23737, 22910, 27089, 32934, 38210, 43223, 45731, 41558, 32416, 26992, 28788, 31580, 32224, 33807, 35399, 32962, 26950, 22078, 22769, 28658, 35115, 39677, 43343, 44575, 39583, 31259, 27863, 29885, 31175, 31598, 33921, 35147, 31692, 25620, 22300, 24867, 30980, 36320, 40060, 43254, 43312, 37101, 29749, 28768, 31389, 31794, 31933, 33698, 33549, 29443, 24278, 23081, 27400, 33125, 37070, 40756, 44197, 42489, 34488, 28287, 29101, 31617, 32117, 33252, 34544, 32481, 27126, 22359, 22730, 28525, 35088, 39672, 43299, 44710, 40183, 31999, 28063, 29452, 30630, 31364, 33726, 34608, 31567], [36367, 23528, 10767, 5351, 8714, 18058, 31482, 45670, 52982, 49646, 42670, 39482, 38437, 37329, 38695, 41491, 39324, 29248, 16368, 8353, 7757, 12856, 23147, 37867, 50748, 53551, 46662, 39120, 36332, 36644, 38380, 40579, 40750, 36683, 27474, 15514, 7429, 7781, 15123, 26861, 41204, 52370, 53177, 45727, 38897, 35462, 33905, 35894, 40521, 41426, 35023, 24149, 14389, 9810, 11223, 18207, 30310, 43958, 51449, 48658, 41607, 38032, 37514, 37422, 39014, 41643, 40231, 31647, 19349, 10384, 8435, 12293, 20834, 34024, 47375, 52367, 47328, 40537, 37874, 37359, 37638, 40010, 42151, 38632, 27879, 15332, 8159, 8409, 14345, 25259, 39724, 51191, 52448, 45544, 39277, 36927, 36266, 37448, 40758, 42094]], "framecount": 6.0, "time": 1489540259442}
{"dataframe": [[32697, 31652, 30657, 30265, 30857, 31972, 32969, 33801, 34433, 34492, 33970, 33337, 33008, 33073, 33259, 33269, 33073, 32550, 31506, 30455, 30162, 30594, 31675, 33540, 35287, 35784, 35121, 33753, 32180, 31370, 31665, 32503, 33442, 33947, 33329, 32073, 31423, 31296, 31085, 31535, 32995, 34040, 33923, 33569, 33456, 33193, 32982, 33390, 34017, 33848, 32783, 31744, 31292, 31232, 31323, 31346, 31369, 32109, 33507, 34282, 34247, 34412, 34655, 34292, 33705, 33306, 32715, 31752, 30742, 29965, 29717, 30362, 31845, 33698, 35290, 35808, 35065, 33918, 33110, 32690, 32515, 32528, 32782, 32924, 32195, 30959, 30572, 31109, 31563, 32092, 33460, 34941, 35227, 34467, 33599, 32949, 32598, 32691, 32929, 32899], [32961, 35099, 37740, 39010, 37336, 33650, 30002, 27468, 26947, 29076, 32070, 33329, 33137, 32940, 32333, 31270, 31473, 33655, 36494, 38307, 38271, 36700, 33971, 30131, 26668, 25983, 28463, 32266, 34871, 34559, 32351, 31102, 31484, 32207, 33893, 36882, 38318, 37437, 36346, 33972, 29241, 26145, 27483, 30381, 31920, 32633, 33199, 32810, 31543, 31211, 33114, 36256, 38409, 38416, 36594, 33778, 31010, 29006, 27952, 28391, 30315, 32053, 32672, 33053, 33182, 32211, 31308, 32806, 36396, 38883, 38511, 36704, 34406, 30727, 26758, 25847, 28539, 31742, 33095, 32851, 32522, 32832, 32790, 32468, 34096, 37209, 38407, 37245, 35471, 32762, 29161, 27173, 27946, 29874, 31575, 32777, 33256, 32808, 31813, 31495], [32407, 31171, 29225, 28877, 30371, 32148, 33980, 35884, 36366, 34805, 33192, 33151, 33526, 33128, 32982, 33611, 33516, 31928, 30035, 29010, 29090, 30221, 32180, 34500, 36375, 36560, 34792, 32904, 32487, 32953, 33456, 33940, 34026, 33202, 31411, 29289, 28196, 28817, 30505, 32759, 35483, 37391, 36685, 34285, 33069, 33285, 33164, 32861, 33110, 32952, 31774, 30307, 29216, 29040, 30227, 32241, 34182, 35865, 36861, 36134, 34094, 32607, 32202, 32050, 32213, 33083, 33657, 32653, 30663, 29549, 29903, 30769, 31748, 33382, 35357, 36143, 35124, 33795, 33568, 33733, 33278, 32858, 33072, 32817, 31270, 29686, 29334, 29731, 30499, 32206, 34476, 35926, 36009, 35284, 34521, 33963, 33269, 32611, 32714, 33043], [33240, 34170, 35287, 34425, 32451, 31785, 31390, 30078, 30150, 32570, 34596, 34848, 34418, 33368, 31746, 30769, 30685, 31782, 34377, 35902, 34574, 33098, 32990, 32238, 31085, 31678, 32770, 32068, 31025, 32017, 33811, 33884, 32802, 32724, 33556, 33918, 33784, 33622, 33292, 32707, 31716, 30576, 30650, 32126, 33163, 33178, 33279, 33577, 33518, 33199, 32781, 32456, 32606, 33156, 33671, 33634, 32848, 32089, 31902, 31707, 31500, 31897, 32534, 33041, 33748, 34328, 34294, 33818, 32734, 31302, 30904, 31693, 32507, 33283, 34167, 34418, 34077, 33268, 31327, 29756, 30857, 32795, 32949, 32873, 33885, 34220, 33702, 34005, 34527, 33730, 32085, 30766, 30350, 30914, 31675, 32158, 33106, 34205, 33945, 32993], [33830, 35977, 37306, 36701, 35083, 33289, 30806, 28466, 28694, 31455, 33425, 32611, 30922, 30805, 31824, 32264, 32561, 34486, 37317, 38413, 37144, 34780, 32127, 29695, 28340, 28622, 30094, 31476, 32177, 32809, 33455, 33391, 32792, 32780, 33990, 35932, 37276, 36819, 34685, 31869, 28958, 27132, 28419, 32105, 34423, 33864, 32452, 31566, 30886, 30853, 32694, 35931, 38334, 38640, 37037, 33857, 30070, 27399, 27013, 28995, 31954, 33816, 34080, 33469, 32334, 31364, 31702, 33470, 35677, 37152, 37045, 35435, 33391, 31519, 29479, 27986, 28606, 30621, 32096, 33375, 34913, 34686, 32158, 30465, 31840, 35010, 37687, 38275, 36409, 33350, 30189, 27556, 27336, 29919, 32362, 33230, 33666, 33432, 32056, 31163], [32582, 32293, 31898, 31752, 32361, 33451, 34250, 34532, 34256, 33187, 31813, 31076, 31152, 31909, 33128, 33827, 33488, 33061, 33052, 32743, 32158, 32209, 32808, 33145, 33076, 32753, 32239, 32021, 32495, 33242, 33667, 33554, 33114, 32867, 32775, 32333, 31890, 32024, 32305, 32390, 32780, 33450, 33583, 33111, 32792, 32760, 32740, 33007, 33471, 33320, 32620, 32209, 32022, 31667, 31606, 32121, 32734, 33355, 34123, 34383, 33624, 32692, 32462, 32450, 32138, 32154, 32813, 33184, 32748, 32308, 32469, 32749, 32680, 32494, 32511, 32748, 33045, 33179, 33180, 33352, 33484, 33115, 32723, 32747, 32487, 31902, 31921, 32219, 32040, 32137, 32979, 33568, 33542, 33482, 33372, 33058, 32877, 32931, 33002, 32864], [26683, 23227, 24000, 29154, 35413, 40423, 44413, 45295, 39295, 30328, 27148, 29157, 30228, 31197, 33918, 34330, 30012, 24857, 24022, 27971, 33048, 37237, 41199, 43920, 41625, 33737, 27211, 27629, 30931, 32577, 34150, 35635, 33849, 28640, 23636, 23071, 27659, 33614, 38079, 41746, 43906, 40645, 32658, 28034, 30007, 32345, 32249, 33106, 34166, 31445, 25846, 22668, 25040, 30664, 35851, 40033, 43561, 43752, 37845, 29977, 27506, 29765, 31243, 32062, 34092, 34782, 31563, 26072, 23024, 25566, 31504, 36773, 40627, 43518, 42369, 35119, 28223, 28246, 31281, 32511, 33807, 35152, 33357, 28450, 23497, 22696, 27665, 34133, 38280, 41616, 44120, 41032, 32640, 27650, 29604, 31938, 31679, 32703, 34795, 33381], [36706, 24856, 12756, 6996, 8771, 16125, 28147, 42396, 51670, 50643, 44105, 40074, 39048, 38696, 39873, 41614, 39469, 30939, 18664, 8818, 5969, 10247, 20310, 34885, 49213, 55106, 50138, 41952, 37512, 36085, 36258, 38706, 41159, 38747, 29275, 16724, 8373, 7530, 12866, 23400, 37819, 50108, 52984, 47426, 41499, 38738, 37382, 37939, 40583, 40983, 35285, 24176, 12311, 5846, 7772, 16407, 29263, 43739, 53393, 52196, 44289, 38880, 37422, 37078, 38511, 40923, 39617, 32034, 20253, 9890, 6769, 11436, 20587, 33172, 47111, 54217, 50031, 42093, 38170, 37098, 36916, 38651, 40689, 38510, 29466, 16698, 7772, 6990, 12903, 23884, 38707, 51356, 53920, 47209, 40147, 37063, 35778, 36249, 39488, 41605]], "framecount": 7.0, "time": 1489540259552}
{"dataframe": [[32613, 31998, 31027, 30521, 31077, 31997, 32757, 33816, 34923, 34796, 33469, 32630, 32935, 33440, 33530, 33290, 32833, 32278, 31601, 30816, 30511, 31022, 31871, 33084, 34848, 35723, 34508, 32735, 32227, 32553, 32779, 32956, 33321, 33593, 33036, 31522, 30337, 30562, 31573, 32507, 33562, 34664, 34825, 33879, 32796, 32106, 32008, 32808, 33889, 34263, 33863, 32828, 31174, 29826, 30021, 31456, 32776, 33672, 34418, 34387, 33420, 32806, 33149, 33610, 33654, 33630, 33680, 33113, 31671, 30444, 30146, 30364, 31150, 32773, 34363, 34924, 34630, 34044, 33361, 32718, 32474, 32955, 33741, 33819, 32928, 31566, 30264, 29990, 31051, 32023, 32562, 34016, 35508, 34967, 33571, 33260, 33008, 32203, 32452, 33556], [33047, 35974, 38193, 38386, 37035, 34718, 31567, 28336, 26427, 27262, 30526, 33355, 33769, 32868, 32197, 31895, 32025, 33421, 36150, 38462, 38617, 36667, 33570, 29924, 26739, 26226, 29274, 32896, 33806, 32926, 32567, 32487, 31686, 31048, 32840, 37434, 40753, 39005, 34747, 31915, 29442, 26601, 26686, 29999, 32512, 33124, 33448, 33286, 32321, 31647, 32245, 34671, 38027, 39428, 37341, 33657, 30628, 28270, 26755, 27956, 31455, 33705, 33688, 33446, 33102, 31622, 30579, 32340, 35906, 38038, 37933, 36862, 34549, 30693, 27567, 27357, 29425, 31625, 32608, 32817, 33122, 32648, 30994, 30975, 34198, 37741, 38805, 37424, 34886, 33137, 31957, 28704, 25490, 27567, 32435, 33579, 32281, 32728, 33173, 31963], [32131, 30212, 29018, 29148, 30049, 31565, 33608, 35707, 37033, 36388, 34085, 32414, 32406, 33039, 33528, 33601, 32932, 31644, 30232, 29121, 28919, 30260, 32725, 34955, 36085, 35848, 34366, 33091, 33459, 34350, 34022, 32981, 32381, 31988, 30959, 29297, 28402, 29565, 31946, 33982, 35589, 36705, 36225, 34360, 32909, 32471, 32457, 32723, 33079, 33095, 32520, 31017, 29177, 28843, 30428, 32382, 34121, 36018, 36970, 35732, 33551, 32239, 31635, 31410, 32297, 33900, 34479, 33275, 31153, 29678, 29670, 30493, 31586, 33305, 35205, 35857, 35069, 33998, 33224, 32687, 32609, 33159, 33863, 33560, 31686, 29776, 29467, 30124, 30879, 32212, 34145, 35614, 35717, 34523, 33215, 32942, 33462, 33865, 33830, 33432], [33270, 34076, 33715, 32881, 32798, 32952, 32691, 32203, 31641, 31245, 31396, 32098, 33034, 33485, 33183, 33238, 33945, 33792, 32744, 32686, 33646, 33617, 32123, 30819, 31026, 32458, 33901, 34442, 33891, 32423, 30888, 30657, 31711, 32505, 32786, 33923, 35717, 36080, 34531, 32766, 31372, 29817, 29337, 31182, 33535, 34291, 33853, 33121, 32267, 31715, 32000, 33179, 34614, 35123, 34352, 33187, 32018, 30666, 29920, 30765, 32715, 34390, 34853, 33988, 32515, 31568, 31641, 32436, 33508, 34136, 33673, 32653, 32239, 32543, 32341, 31299, 31441, 33591, 35025, 34323, 33415, 32671, 30842, 29496, 30780, 33363, 35265, 36414, 36101, 32963, 28806, 27872, 30973, 34306, 35203, 34680, 33890, 32838, 31960, 31487], [32202, 34728, 37026, 37478, 36271, 34608, 32420, 29575, 27928, 28842, 30677, 31615, 32240, 33108, 33341, 32955, 33049, 33900, 35162, 36439, 36836, 35568, 33009, 30272, 28331, 28097, 29999, 32685, 33917, 33286, 32231, 31793, 32006, 32732, 34052, 35979, 37723, 37698, 35096, 31083, 27746, 26845, 29167, 32948, 34795, 34040, 32745, 31669, 30622, 30624, 32398, 35154, 37466, 38036, 36582, 34043, 31440, 29398, 28542, 29249, 30923, 32313, 32867, 32994, 32844, 32122, 31539, 32786, 35760, 37793, 37250, 35379, 33542, 31406, 28769, 27351, 28846, 31825, 33649, 34206, 34274, 33157, 31016, 30258, 32392, 35521, 36947, 36738, 36057, 34322, 31318, 29102, 29180, 30492, 31472, 31765, 31689, 31725, 31903, 31852], [32393, 31965, 32042, 32207, 31880, 31677, 32426, 33706, 34528, 34333, 33384, 32665, 32627, 32670, 32428, 32242, 32316, 32440, 32449, 32411, 32443, 32644, 33042, 33467, 33581, 33148, 32406, 32028, 32318, 32819, 33124, 33367, 33631, 33707, 33313, 32330, 31349, 31243, 31671, 31651, 31750, 33127, 34781, 34904, 33891, 33203, 33001, 32751, 32471, 32366, 32293, 32039, 31684, 31604, 32014, 32584, 33094, 33786, 34278, 33840, 33100, 32987, 32893, 32317, 32069, 32403, 32623, 32533, 32382, 32295, 32378, 32510, 32563, 32929, 33712, 34150, 33762, 33031, 32522, 32221, 32037, 32207, 32614, 32615, 32320, 32521, 33097, 33245, 32846, 32480, 32682, 33301, 33545, 33020, 32430, 32547, 32870, 32618, 32432, 33030], [27787, 22929, 23809, 29402, 34824, 38683, 42450, 43977, 39167, 31074, 27969, 30227, 31691, 32185, 34282, 34988, 31084, 24994, 22050, 24962, 31272, 37094, 41338, 44019, 42734, 35718, 28342, 27531, 30862, 32703, 33921, 35465, 34052, 28787, 23344, 22117, 26374, 33043, 38467, 42071, 43879, 41213, 33822, 28513, 29406, 31510, 31816, 33001, 34282, 32426, 27977, 24155, 24144, 28473, 34068, 38505, 42341, 44435, 40486, 31839, 27265, 29259, 31426, 32003, 33947, 35164, 31851, 25666, 21953, 24221, 30754, 36916, 40921, 43837, 43613, 37073, 29270, 28104, 30990, 31707, 31993, 34051, 34112, 29351, 23046, 21729, 27408, 34598, 38604, 41333, 44305, 42658, 34250, 27376, 28041, 30798, 31563, 33104, 34927, 33277], [37284, 26513, 14720, 7749, 8176, 15505, 27761, 41663, 51342, 51758, 45973, 41293, 38808, 36571, 36466, 38834, 38709, 32003, 20632, 10995, 8049, 11820, 20543, 33377, 47070, 53980, 50078, 41977, 37744, 36815, 36509, 37939, 40210, 38555, 30312, 18415, 9179, 7221, 12552, 22827, 36192, 48722, 53229, 48206, 41677, 39067, 38058, 37711, 39328, 40483, 36815, 26817, 14362, 6807, 7546, 14166, 25376, 40928, 53680, 54552, 46586, 40267, 37946, 36375, 36262, 38464, 39248, 34240, 23401, 12264, 7197, 9474, 17333, 30238, 45216, 53911, 51585, 44319, 39571, 37450, 36874, 38937, 41292, 38868, 29866, 17280, 6682, 3548, 11147, 26844, 41971, 50465, 51979, 47087, 39407, 35489, 36218, 38052, 40466, 42504]], "framecount": 8.0, "time": 1489540259645}
{"dataframe": [[33522, 32395, 31478, 30908, 30590, 31023, 32252, 33590, 34303, 34145, 33669, 33594, 33686, 33400, 33189, 33537, 33697, 32794, 31162, 30081, 30476, 31505, 31602, 31614, 33408, 35392, 35081, 33960, 33790, 33337, 32611, 33187, 34030, 33320, 31847, 30941, 30507, 30271, 30475, 31425, 33143, 34846, 35444, 34954, 34175, 33434, 32878, 32770, 32848, 32730, 32592, 32359, 31505, 30479, 30426, 31308, 32417, 33621, 34553, 34642, 34209, 33730, 33152, 32761, 33046, 33649, 33703, 32842, 31448, 30403, 30247, 30687, 31423, 32435, 33569, 34682, 35332, 34898, 33819, 33043, 32570, 32340, 32838, 33504, 33125, 31946, 30881, 30146, 30128, 31188, 32775, 34290, 35271, 34929, 33588, 33018, 33673, 34144, 33817, 33110], [32248, 35189, 37702, 38158, 37335, 35246, 31783, 28351, 26862, 28164, 30752, 31963, 32052, 33190, 34300, 33131, 31443, 32506, 35861, 37840, 36813, 35390, 35153, 33038, 27843, 25043, 28272, 32645, 33601, 33330, 33485, 32403, 30794, 31031, 33175, 36094, 38608, 39184, 37251, 33662, 29590, 26654, 26627, 29224, 32099, 33523, 33398, 32600, 32099, 31760, 31537, 33333, 37523, 40179, 38690, 35338, 32023, 28410, 26228, 27721, 30945, 32612, 32619, 32392, 32360, 32291, 32102, 32798, 35375, 37946, 38178, 37144, 35579, 32073, 28036, 26639, 27818, 29878, 32143, 33887, 34075, 32553, 30655, 30633, 33365, 36980, 39192, 39297, 37291, 33684, 29724, 26601, 25679, 27962, 31871, 34323, 34388, 33169, 31620, 31118], [32518, 30918, 29251, 28642, 29440, 31229, 33574, 35834, 36852, 35853, 33814, 32655, 32733, 32893, 32802, 33104, 33486, 32647, 30710, 29599, 29976, 30634, 31431, 33194, 35235, 36022, 35252, 33923, 33114, 32928, 32949, 33290, 33926, 33886, 32470, 30339, 28625, 28011, 29012, 31586, 34523, 36567, 37211, 36329, 34534, 33082, 32628, 32775, 32881, 32883, 32607, 31206, 29095, 28289, 29429, 31378, 33484, 35601, 36825, 36239, 34577, 33429, 33135, 33143, 33173, 32820, 31982, 31234, 30624, 30031, 29885, 30176, 31197, 33833, 36798, 37341, 35389, 33226, 32131, 32016, 32682, 33630, 34082, 33728, 32380, 30084, 28281, 28559, 30452, 32612, 34774, 36749, 37302, 35732, 33142, 31101, 30509, 31642, 33656, 34883], [31295, 32089, 33766, 34452, 33501, 32544, 32556, 32543, 31898, 31778, 32852, 33846, 33687, 32979, 32570, 32250, 31658, 31403, 31984, 32964, 34195, 35385, 35158, 33486, 31886, 30416, 29574, 31384, 34183, 34228, 32733, 32612, 33137, 33378, 33461, 32357, 31052, 32320, 34359, 33774, 32588, 33151, 33315, 32242, 31755, 31794, 31913, 32842, 33462, 32463, 31906, 33391, 34579, 33891, 33138, 33054, 32440, 31640, 31754, 32458, 32989, 32969, 32314, 31616, 31835, 33149, 34371, 34317, 33503, 32797, 32257, 32510, 33154, 31899, 30105, 31895, 35429, 35698, 33617, 32303, 31226, 30335, 31073, 32380, 32891, 33290, 33658, 33758, 34387, 35261, 34984, 33180, 30481, 28568, 29523, 32345, 33630, 33118, 33131, 33615], [32663, 35509, 38123, 38000, 36415, 34711, 32133, 29123, 27567, 28287, 30545, 32714, 33414, 32807, 32065, 31763, 31967, 33123, 35429, 38081, 39514, 37956, 33287, 28282, 25767, 26245, 29206, 32997, 34881, 34624, 34080, 33133, 31511, 31325, 33294, 35383, 36412, 36260, 34617, 32455, 30990, 29779, 29169, 30458, 32457, 33318, 33510, 33160, 31638, 30519, 31583, 33893, 35869, 36954, 36747, 35358, 33475, 31160, 29052, 29083, 30730, 31015, 30341, 31695, 34377, 34950, 32919, 31400, 32783, 35770, 37487, 36960, 35007, 32302, 29551, 28427, 29728, 31678, 32430, 32255, 31901, 31416, 30975, 31388, 33572, 36959, 39199, 38860, 36519, 33069, 29507, 27329, 27435, 29372, 31575, 32617, 32761, 33041, 33221, 32711], [33352, 32429, 31434, 31681, 32581, 33143, 33444, 33735, 33737, 33271, 32732, 32606, 32770, 32716, 32271, 31816, 31927, 32526, 32911, 33139, 33561, 33298, 32020, 31562, 32860, 33997, 33614, 33012, 33192, 33161, 32408, 31966, 32321, 32681, 32543, 32313, 32325, 32414, 32609, 33088, 33409, 33158, 32863, 32951, 33109, 33225, 33307, 33032, 32656, 32748, 32760, 31917, 30980, 31138, 32158, 33111, 33754, 34148, 34099, 33707, 33315, 32781, 32058, 31913, 32644, 33124, 32535, 31742, 31756, 32286, 32610, 32767, 33303, 34055, 34117, 33371, 32597, 32172, 32080, 32333, 32728, 33063, 33244, 33004, 32476, 32312, 32429, 32217, 32052, 32524, 33105, 33350, 33606, 33736, 33215, 32415, 32198, 32643, 33162, 33300], [28148, 23305, 23191, 28333, 34345, 38660, 42717, 45196, 41170, 32172, 27402, 29384, 31406, 31419, 32679, 33832, 31202, 25752, 22532, 25243, 31728, 37194, 40880, 44227, 44351, 37475, 28470, 26024, 29328, 31960, 33163, 34511, 34258, 30496, 24838, 22175, 25368, 31640, 37581, 42656, 45644, 43014, 34656, 27796, 27855, 30639, 31754, 32846, 34075, 32775, 28573, 23992, 23226, 28078, 34852, 39727, 42909, 43928, 39561, 31263, 26987, 29278, 31998, 32686, 34093, 34882, 31789, 26278, 22832, 24431, 29974, 35731, 40192, 44013, 44389, 37551, 28528, 26324, 29620, 31781, 33372, 36121, 36231, 31207, 24213, 21104, 24571, 30960, 36256, 40983, 45098, 44240, 36629, 29167, 28193, 30136, 30810, 32328, 34603, 33737], [39094, 28326, 15895, 8318, 7451, 12952, 24276, 38738, 49707, 50641, 44146, 39614, 39463, 39454, 39363, 41015, 42037, 37588, 25405, 10632, 2915, 5676, 14890, 28215, 44644, 56635, 56530, 48848, 42461, 37721, 33353, 32822, 35678, 35863, 30171, 20608, 12332, 10948, 16813, 24972, 33219, 42268, 48407, 47559, 43379, 41051, 39962, 39174, 40471, 41638, 35640, 21007, 7400, 4932, 12415, 22271, 31249, 40933, 50544, 53698, 47016, 37320, 31880, 30688, 34096, 42509, 47650, 40629, 25167, 12230, 8456, 13416, 21555, 28710, 36747, 44702, 45147, 38469, 34615, 36573, 40155, 45432, 51657, 50850, 38910, 22257, 7662, 0, 0, 7949, 27229, 46009, 57219, 58799, 55312, 51308, 45702, 38006, 32459, 31085]], "framecount": 9.0, "time": 1489540259770}
{"dataframe": [[32063, 31075, 30778, 30604, 30283, 31039, 32938, 34334, 34725, 34657, 34044, 33202, 33081, 33486, 33427, 32847, 32560, 32753, 32367, 30940, 29964, 30468, 31470, 32558, 34332, 35660, 35014, 33603, 33159, 33088, 32645, 32541, 32997, 33285, 33064, 32298, 31155, 30396, 30427, 31004, 32236, 33979, 35098, 34983, 34279, 33570, 33055, 32971, 33147, 33204, 33113, 32578, 31269, 30147, 30471, 31617, 32155, 32441, 33504, 34589, 34580, 34127, 34013, 33738, 33220, 33102, 33030, 32355, 31512, 30820, 30226, 30537, 32005, 33286, 33935, 34625, 34782, 33813, 32811, 32629, 32854, 33079, 33221, 33162, 32807, 32108, 31318, 30895, 30881, 31370, 32758, 34353, 34814, 34192, 33329, 32585, 32409, 33061, 33849, 34018], [32941, 35342, 36033, 36592, 38059, 37176, 32734, 28290, 26613, 27800, 30640, 32850, 33185, 32675, 32395, 32180, 31656, 31797, 34335, 38201, 39650, 37774, 34956, 31647, 27560, 25919, 28681, 31794, 31956, 31729, 33278, 34129, 32657, 31594, 33194, 35815, 37258, 37473, 36812, 34718, 30993, 27317, 26622, 29268, 31773, 32439, 33070, 33486, 32287, 31120, 31718, 33657, 36740, 39662, 39105, 35266, 32147, 30127, 27418, 26595, 29474, 32225, 32603, 32663, 32766, 32165, 32395, 33985, 35407, 36712, 38273, 38047, 34868, 30608, 27144, 25855, 28122, 32121, 34008, 33646, 33263, 32702, 31386, 31026, 32952, 35953, 37869, 37825, 36589, 34549, 31102, 27530, 26769, 29018, 31743, 33239, 33293, 32585, 32091, 31880], [34481, 32809, 30733, 29305, 29220, 30246, 31934, 34255, 36212, 35983, 34024, 32639, 32505, 32992, 33804, 34488, 34538, 33579, 31250, 28602, 27735, 28972, 31118, 33590, 35705, 36184, 35101, 34117, 34101, 34126, 33264, 32356, 32608, 33115, 32286, 30687, 29822, 29838, 30304, 31337, 33115, 35058, 35715, 34732, 34006, 34358, 34313, 33808, 33901, 33688, 32227, 30404, 28934, 28090, 28680, 30728, 33200, 35650, 37373, 36771, 34437, 33094, 33200, 33272, 33217, 33317, 32775, 31419, 30053, 29105, 28886, 29967, 32180, 34668, 36693, 37149, 35358, 33094, 32434, 32504, 32117, 32495, 34045, 34620, 32959, 30333, 28519, 28285, 29612, 32119, 34851, 36439, 36238, 34892, 33656, 33311, 33590, 33647, 33071, 32389], [33518, 33748, 34602, 34529, 33127, 31858, 31606, 31469, 30747, 30799, 32644, 34665, 35035, 33988, 32578, 31073, 29911, 30949, 34399, 36671, 35544, 33318, 32028, 31257, 31011, 31721, 32691, 33032, 32639, 32089, 32129, 32628, 32881, 33213, 34277, 35192, 34521, 32408, 30699, 30916, 32032, 32217, 32431, 33852, 34352, 32921, 32123, 32618, 32399, 31728, 32189, 33098, 33380, 33772, 34561, 34343, 32390, 30016, 29649, 32282, 35091, 35086, 33832, 33246, 32015, 30268, 30197, 31497, 32778, 34199, 35114, 34467, 33612, 33663, 33183, 31957, 31755, 32324, 32173, 31696, 31631, 31607, 31560, 31790, 32666, 34675, 36620, 36390, 34677, 33341, 31710, 29439, 28990, 31075, 32735, 32512, 32253, 33216, 34692, 35190], [32604, 34322, 36806, 37637, 36420, 34554, 32534, 29853, 27281, 27140, 30135, 33650, 34995, 34134, 32151, 30206, 30178, 32904, 36271, 37815, 37636, 36455, 33983, 31016, 29161, 28627, 29299, 31057, 32348, 32357, 32393, 32706, 32328, 32090, 33366, 35559, 37368, 38029, 36812, 33705, 30106, 27716, 27599, 29516, 31631, 32686, 33239, 33370, 32480, 31568, 32299, 34546, 36677, 37436, 36788, 35267, 33141, 30453, 27909, 27103, 28676, 31238, 33191, 33982, 33779, 33267, 33036, 33444, 34794, 36249, 36472, 35695, 34269, 31517, 28430, 27512, 29134, 31471, 33070, 33491, 32950, 32255, 32121, 32729, 34263, 36260, 37167, 36530, 35192, 32953, 29881, 27973, 28455, 30263, 31915, 32741, 32928, 32951, 32909, 33002], [32843, 32074, 31706, 31802, 31968, 32378, 33265, 34265, 34639, 33786, 32238, 31412, 31733, 32457, 32966, 33173, 33391, 33715, 33462, 32327, 31320, 31281, 31939, 32888, 33671, 33672, 33199, 33094, 33233, 33064, 32716, 32553, 32549, 32487, 32311, 32291, 32658, 32951, 32508, 31844, 32186, 33398, 34139, 34050, 33655, 32890, 31974, 31874, 32432, 32644, 32695, 33061, 33006, 32184, 31732, 32207, 32764, 33174, 33813, 33939, 33000, 32259, 32602, 32959, 32647, 32549, 32957, 33090, 32819, 32462, 31998, 31780, 32236, 32894, 33242, 33377, 33312, 33139, 33132, 32913, 32257, 32210, 33210, 33850, 33339, 32551, 31942, 31385, 31360, 32022, 32756, 33420, 34054, 34083, 33371, 32785, 32916, 33174, 32740, 32051], [28939, 23648, 22703, 27433, 33776, 38505, 42413, 45025, 42091, 33373, 27118, 27975, 30323, 31139, 33404, 35474, 33108, 27560, 23508, 24185, 29113, 34890, 39470, 43179, 44048, 38553, 30299, 27741, 30552, 31966, 31884, 33464, 34463, 31275, 25318, 22344, 25738, 32075, 36755, 40093, 43442, 43325, 36402, 28637, 27976, 31116, 31890, 32562, 34784, 34347, 29692, 24446, 22955, 26458, 32189, 37111, 41038, 43957, 42393, 34726, 28150, 28909, 32013, 32408, 32851, 34108, 32541, 27760, 23677, 23936, 28289, 33642, 38390, 42729, 44588, 40224, 32027, 28240, 30242, 31727, 31557, 33060, 34602, 32038, 25907, 21850, 24266, 30711, 36256, 40401, 44117, 43988, 37087, 29368, 28300, 31059, 32154, 32803, 33870, 32764], [29089, 21487, 11768, 8147, 12186, 19374, 28511, 40464, 50244, 50880, 44470, 39343, 37920, 37490, 38075, 40494, 41920, 37505, 25391, 11341, 4616, 7846, 17163, 30159, 45221, 55225, 53056, 43459, 36949, 35017, 34189, 35437, 39266, 41204, 36300, 24437, 11869, 5736, 7825, 16915, 31909, 48132, 56497, 52872, 44197, 38683, 36326, 35142, 36449, 39307, 38747, 31480, 19634, 9213, 5852, 11007, 22034, 36300, 50399, 56211, 49833, 40351, 36701, 36344, 36148, 38643, 41705, 37391, 25060, 14026, 10390, 11562, 15572, 24434, 36847, 46425, 48499, 45472, 43181, 42639, 41346, 41183, 45045, 47006, 36946, 16212, 0, 0, 3927, 19671, 38370, 53606, 58748, 53460, 44417, 38044, 34858, 33149, 33697, 36841]], "framecount": 10.0, "time": 1489540259849}
{"dataframe": [[33499, 32500, 31385, 30754, 30884, 31286, 31665, 32549, 33733, 34094, 33736, 33628, 33738, 33747, 33914, 34215, 34103, 33175, 31370, 29384, 28886, 30360, 31839, 32437, 33809, 35765, 35875, 34257, 33102, 32845, 32823, 32835, 32625, 32384, 32527, 32295, 31278, 30816, 31436, 31924, 32142, 33314, 35075, 35471, 34260, 33228, 32907, 32297, 31607, 31841, 32707, 33310, 33266, 32475, 31436, 31103, 31622, 32464, 33348, 33876, 33706, 33429, 33606, 33711, 33302, 32964, 33203, 33352, 32532, 31294, 30759, 30770, 30908, 31821, 33569, 34698, 34423, 33777, 33557, 33192, 32667, 32931, 33743, 33961, 33290, 31891, 30293, 29756, 30577, 31631, 32647, 34162, 35306, 34878, 33754, 33320, 33107, 32531, 32542, 33458], [32075, 33789, 36625, 38090, 37402, 36114, 34149, 30239, 26508, 26661, 29957, 32595, 33354, 33227, 32331, 30863, 30540, 32465, 35802, 39025, 39897, 37274, 34015, 32069, 28992, 25556, 26449, 30661, 33217, 33601, 33418, 32652, 32029, 32366, 33305, 35324, 37936, 38245, 35909, 33766, 31942, 28733, 26356, 27932, 31241, 32637, 32929, 33575, 33324, 32293, 32276, 33248, 34981, 37566, 38721, 36667, 33088, 29617, 27153, 27584, 30293, 32128, 32773, 33417, 33246, 32043, 31162, 31672, 34296, 37557, 38267, 36862, 35613, 33136, 28739, 26415, 28165, 30655, 32098, 34068, 35190, 32912, 29992, 30024, 32097, 34988, 38299, 39423, 37115, 34177, 31976, 28936, 26496, 28116, 31841, 32993, 32505, 33161, 32955, 30595], [32162, 31775, 30467, 29002, 28655, 29782, 32315, 35712, 38076, 37409, 34357, 32010, 31987, 33030, 33861, 34101, 33344, 31855, 30297, 28968, 28596, 29723, 31695, 34020, 36430, 37448, 36027, 33652, 32390, 32304, 32383, 32519, 33043, 33490, 32923, 31179, 29530, 29400, 30512, 31742, 33127, 35054, 36376, 35798, 34270, 33336, 32741, 32243, 32666, 33545, 33482, 32366, 30690, 29093, 28870, 30442, 32750, 34783, 35775, 35227, 33999, 33284, 33029, 33135, 33989, 34820, 34327, 32520, 30250, 28687, 28860, 30175, 31365, 32639, 34419, 35773, 35951, 35309, 34106, 32702, 32317, 33260, 34019, 33533, 32047, 30114, 28757, 28983, 30486, 32320, 34133, 35727, 36215, 34928, 33091, 32525, 32940, 33285, 33861, 34563], [33642, 31509, 31668, 33783, 34741, 33508, 31757, 31054, 31634, 32685, 33303, 33166, 32236, 31109, 31267, 33157, 34887, 34767, 33688, 33025, 32650, 32333, 32133, 31736, 31496, 32170, 33333, 34131, 34127, 33064, 31859, 31828, 32255, 32097, 32034, 32411, 33022, 34279, 35296, 34315, 32279, 31506, 31813, 31851, 32002, 32943, 33753, 33468, 32445, 31319, 30469, 30849, 33277, 36247, 36947, 35023, 32643, 31261, 30854, 31022, 31407, 32126, 33199, 33292, 31765, 30976, 32703, 34907, 35388, 34586, 33291, 32028, 31941, 32808, 32836, 31911, 31471, 31931, 32918, 33563, 32654, 31105, 31177, 32573, 33564, 34175, 34917, 35309, 34902, 33641, 31833, 30434, 30222, 30884, 31525, 31928, 32529, 32807, 32312, 32992], [33586, 34303, 34829, 35581, 36145, 35183, 32799, 30422, 28940, 29031, 30788, 32337, 32400, 32299, 32748, 32721, 32204, 32492, 34219, 36495, 37709, 36934, 34368, 31128, 28857, 28600, 29792, 31016, 31979, 33188, 33730, 32601, 31187, 31247, 32945, 35740, 38069, 38097, 36201, 33629, 30371, 27314, 27021, 29978, 33232, 34264, 33596, 32525, 31115, 29944, 30884, 34248, 37558, 38649, 37804, 35988, 33365, 30050, 27203, 26845, 29282, 32008, 33290, 33604, 33064, 31983, 31962, 33380, 35245, 37073, 37910, 36435, 33404, 30775, 29008, 28108, 28997, 31162, 32457, 32779, 33511, 33875, 32762, 31917, 33202, 35681, 37330, 36793, 34098, 31237, 29763, 29059, 29316, 31508, 33773, 33960, 33305, 32947, 32045, 30995], [32168, 32664, 32292, 31516, 31675, 32588, 33388, 34019, 34323, 33685, 32520, 32088, 32574, 33092, 33158, 32784, 32159, 31861, 32095, 32325, 32543, 33025, 33216, 33098, 33503, 33851, 32936, 31681, 31809, 32968, 33541, 33076, 32446, 32388, 32765, 32934, 32644, 32484, 32786, 32808, 32348, 32562, 33568, 33814, 32998, 32288, 31784, 31336, 32012, 33756, 34776, 34414, 33373, 32151, 31264, 31196, 31794, 32641, 33251, 33294, 33174, 33216, 33038, 32786, 33069, 33470, 33299, 32766, 32212, 31881, 32026, 32150, 31905, 32150, 33206, 34138, 34532, 34253, 32661, 30712, 30712, 32456, 33847, 34417, 34347, 33285, 31970, 31310, 30986, 31127, 32257, 33618, 34249, 34098, 33472, 33010, 33073, 33074, 32693, 32389], [28941, 24400, 22716, 26489, 32980, 37987, 41780, 44811, 42741, 34137, 27266, 28257, 31700, 32750, 33811, 34818, 32340, 26833, 22459, 23089, 28646, 34845, 38976, 42415, 44570, 40776, 31994, 27269, 29413, 31994, 32967, 34630, 34778, 30702, 24719, 21561, 24108, 30557, 36500, 40531, 43974, 44716, 38656, 29775, 26996, 29624, 31122, 32105, 34717, 35147, 30785, 24799, 22011, 24801, 31436, 37840, 42101, 44599, 42844, 34936, 28048, 28735, 31325, 31000, 32067, 34757, 33834, 29066, 24385, 23445, 27569, 33611, 37985, 41426, 43962, 40987, 32707, 28187, 30297, 31593, 30736, 32873, 35713, 33447, 27231, 22675, 23470, 28764, 34783, 39476, 43257, 44314, 39133, 30881, 27814, 30204, 31724, 31928, 33571, 34420], [38314, 32715, 21496, 12473, 10298, 13896, 21957, 33600, 44727, 49204, 46351, 42693, 41809, 40796, 39096, 39260, 40046, 36591, 26203, 13050, 5479, 7383, 16480, 29874, 44584, 53601, 50512, 40171, 34063, 34611, 36791, 39569, 43393, 45295, 41728, 30283, 13533, 1409, 804, 9161, 23475, 42079, 56046, 56298, 48369, 43471, 42044, 40543, 40266, 40007, 35168, 25385, 14160, 5394, 2349, 8417, 26130, 48609, 61341, 59254, 48589, 35883, 26747, 24953, 28834, 35481, 42375, 43491, 35098, 23241, 15906, 14027, 16189, 23222, 34512, 44980, 47714, 42024, 35965, 34895, 36119, 38480, 43246, 46156, 41136, 28931, 15924, 7899, 7175, 13272, 24773, 39239, 50240, 50843, 43989, 39395, 39430, 40211, 41190, 42538]], "framecount": 11.0, "time": 1489540259942}
{"dataframe": [[33842, 32711, 31019, 30316, 30672, 31097, 31665, 33082, 34647, 34991, 34231, 33540, 33351, 33305, 33245, 33204, 33020, 32465, 31523, 30827, 31075, 31654, 31756, 32146, 33453, 34585, 34574, 33914, 33316, 32818, 32471, 32633, 33226, 33690, 33512, 32439, 31029, 30435, 30762, 31278, 32227, 33921, 35161, 34789, 33423, 32529, 32651, 33147, 33491, 33738, 33638, 32890, 31889, 31109, 30549, 30280, 30736, 32141, 33894, 34885, 34799, 34392, 34017, 33407, 32907, 33008, 33271, 33032, 32272, 31400, 30777, 30457, 30462, 31179, 32835, 34688, 35576, 35264, 34439, 33507, 32456, 31725, 31993, 33007, 33554, 32881, 31609, 30824, 30818, 31330, 32389, 33850, 34541, 33832, 33036, 32889, 32675, 32870, 33900, 34381], [29699, 32700, 37229, 39754, 39219, 36796, 33713, 30390, 27509, 26768, 28876, 31646, 32667, 32181, 31667, 31871, 32494, 33306, 35197, 37886, 38856, 37291, 34966, 32517, 29250, 26254, 26352, 29978, 33373, 33701, 32866, 32872, 32577, 31546, 31794, 34510, 38027, 39499, 37930, 34616, 30840, 27628, 26744, 28684, 31463, 33007, 33028, 32508, 32055, 31553, 31738, 33690, 36488, 37954, 37531, 36495, 34989, 31481, 27227, 26480, 29392, 31661, 32143, 32712, 33021, 32188, 31416, 32043, 34338, 37308, 38812, 38016, 35991, 33121, 29294, 26323, 26678, 29808, 32463, 33162, 33267, 33384, 32612, 31391, 31817, 34695, 37867, 38789, 37585, 35390, 31777, 27224, 25378, 28178, 32007, 33472, 33610, 33323, 32297, 31734], [34063, 31998, 29608, 28444, 28986, 30247, 31523, 33416, 35735, 36582, 35348, 34054, 34013, 34152, 33650, 33122, 32906, 32404, 31044, 29203, 28083, 28542, 30488, 33349, 36091, 37249, 36306, 34523, 33439, 33232, 33258, 33190, 33034, 32831, 32202, 30489, 28470, 28063, 29584, 31982, 34681, 36845, 37227, 35947, 34293, 33038, 32264, 31938, 32119, 32672, 32856, 32112, 30984, 30232, 30146, 30895, 32243, 33738, 35233, 35955, 34961, 33321, 32769, 33037, 33363, 33878, 34071, 32883, 30492, 28472, 28370, 30125, 32282, 34103, 35854, 36778, 35452, 32816, 31641, 32312, 32846, 32988, 33872, 34674, 33787, 31540, 29359, 28322, 29040, 31241, 33871, 35985, 36670, 35256, 32996, 32244, 33038, 33644, 33681, 33578], [35719, 37321, 35880, 33339, 31073, 29442, 29590, 31027, 31819, 32354, 33918, 35183, 34750, 33813, 33176, 32105, 31000, 30819, 31265, 32262, 34048, 35317, 34748, 33284, 32626, 32872, 32925, 32333, 31593, 30969, 30507, 30868, 32335, 33895, 34713, 34783, 34208, 33797, 34177, 33928, 32099, 30478, 30421, 30907, 31341, 32625, 34463, 35051, 33986, 32615, 31951, 32034, 32372, 32567, 32687, 32901, 33501, 34288, 33890, 32232, 31630, 32791, 33737, 33237, 31536, 29707, 29411, 30885, 33090, 35630, 37339, 36567, 34627, 33546, 32221, 30124, 29721, 31374, 32005, 30743, 30411, 32243, 34019, 34644, 35166, 35206, 34361, 34080, 33883, 32089, 30535, 31014, 31536, 31411, 32113, 32492, 31516, 31450, 32935, 34223], [31145, 32470, 34485, 36639, 37457, 36132, 33775, 31431, 29310, 28461, 29811, 32083, 33532, 33716, 32510, 30554, 29876, 31483, 34345, 37121, 38620, 37899, 35485, 32835, 30378, 28336, 28172, 29858, 31044, 31515, 32952, 34194, 33129, 31299, 31609, 34120, 36987, 38703, 38178, 35395, 31806, 28636, 26759, 27474, 30397, 32880, 33530, 33258, 32776, 32131, 32100, 33599, 35985, 37671, 37809, 36124, 32939, 29682, 27613, 27321, 29168, 31978, 33689, 34058, 33728, 32639, 31549, 32108, 34576, 37049, 37409, 35793, 33854, 32080, 30026, 28269, 28122, 29806, 32087, 33839, 34686, 34248, 32840, 32066, 32817, 34376, 35782, 36008, 34406, 32273, 31264, 30732, 29949, 30383, 32306, 33331, 32949, 33110, 33450, 32144], [32299, 32108, 31817, 31837, 32263, 32695, 33008, 33432, 33891, 33994, 33479, 32621, 32149, 32293, 32511, 32563, 32766, 32953, 32678, 32365, 32609, 32880, 32556, 32264, 32638, 33048, 32905, 32729, 33108, 33777, 33936, 33225, 32380, 32264, 32457, 32092, 31582, 31742, 32250, 32758, 33542, 34115, 33767, 32962, 32377, 32282, 32871, 33510, 33323, 32702, 32314, 32125, 32208, 32528, 32518, 32219, 32357, 32983, 33535, 33686, 33308, 32698, 32453, 32585, 32840, 33302, 33706, 33333, 32182, 31196, 31017, 31480, 32348, 33469, 34375, 34583, 33937, 32620, 31563, 31871, 33045, 33603, 33445, 33236, 32672, 31660, 31136, 31314, 31649, 32461, 33978, 35032, 34624, 33312, 32344, 32382, 33028, 33316, 32758, 31802], [31183, 25443, 22499, 25402, 31424, 36694, 40984, 44400, 43285, 35648, 28095, 27499, 30543, 32216, 33810, 35445, 33929, 28927, 23730, 22611, 26907, 33074, 37899, 41910, 44494, 41445, 32900, 27203, 28758, 31987, 33355, 34835, 35327, 32119, 26336, 21678, 22024, 27925, 35200, 40824, 45314, 46312, 39537, 29453, 25627, 28039, 30733, 33149, 35788, 35843, 31935, 25948, 22200, 24202, 29951, 35266, 39766, 44086, 44562, 37929, 29905, 28278, 30438, 30880, 31711, 34415, 34549, 29828, 23942, 22348, 26497, 32683, 37831, 42329, 45275, 42497, 33917, 27256, 27323, 30064, 32346, 35054, 36497, 33823, 27482, 21416, 21075, 27371, 34865, 39853, 43698, 45573, 40917, 31561, 26769, 28935, 31737, 33151, 34909, 34657], [40716, 32638, 20032, 9039, 5144, 8583, 17327, 30936, 46277, 54809, 52058, 44608, 40249, 39057, 39008, 40318, 41409, 37225, 24894, 10428, 3799, 7004, 15250, 26798, 42052, 55469, 57711, 48427, 38520, 35014, 34456, 34443, 37243, 40437, 37059, 26227, 14971, 8821, 8006, 12765, 24741, 41856, 54716, 54150, 45576, 41879, 41879, 38313, 35845, 38772, 39496, 31165, 17671, 8500, 8052, 12826, 20314, 32721, 47774, 55323, 50274, 41034, 36899, 36468, 35698, 36035, 39017, 40700, 35339, 22992, 10679, 5440, 9086, 19800, 34899, 49155, 54853, 50169, 43200, 40850, 40267, 37346, 34575, 34087, 31710, 24153, 15065, 9846, 10651, 17806, 30541, 44970, 54242, 53790, 46061, 37404, 32175, 31582, 34590, 38703]], "framecount": 12.0, "time": 1489540260052}
{"dataframe": [[34071, 33752, 32615, 30547, 29424, 29890, 30841, 31989, 33675, 34996, 34825, 33875, 33714, 34355, 34390, 33429, 32702, 32577, 31859, 30406, 29686, 30313, 31412, 32416, 33637, 34832, 35028, 34288, 33648, 33332, 33014, 32860, 32993, 33197, 33072, 32083, 30629, 30140, 30890, 31767, 32611, 33973, 35042, 34684, 33562, 32882, 32707, 32876, 33371, 33626, 33282, 32622, 31729, 30774, 30480, 31049, 31883, 32735, 33720, 34524, 34684, 34182, 33582, 33486, 33423, 32630, 31992, 32481, 32804, 31726, 30476, 30446, 31275, 32317, 33549, 34778, 35263, 34402, 32947, 32460, 32928, 33184, 33290, 33568, 33077, 31551, 30406, 30453, 31019, 31695, 32760, 34063, 34934, 34744, 33623, 32822, 33029, 33375, 33327, 33206], [32034, 32756, 34964, 37747, 38029, 36198, 34511, 32068, 28181, 26355, 28982, 32601, 33059, 31427, 31265, 32781, 33189, 32345, 33494, 36945, 38814, 37505, 35207, 32962, 29970, 27281, 27388, 30015, 32311, 33092, 33055, 32476, 31775, 31651, 32352, 34464, 37675, 39410, 38066, 34920, 31359, 27957, 26282, 27830, 31273, 33721, 34079, 33158, 31929, 30835, 30433, 32128, 36154, 39601, 39707, 37151, 33718, 30154, 27552, 27143, 28703, 31049, 32583, 32349, 32219, 33750, 34081, 32037, 32159, 35851, 38544, 38192, 36382, 33508, 29709, 26744, 26636, 29595, 32896, 33805, 33065, 32402, 31671, 31055, 32136, 35165, 37996, 38646, 37242, 34928, 32310, 29414, 27008, 27284, 30460, 32855, 32644, 32220, 32420, 32080], [33016, 31788, 30405, 29608, 29913, 31061, 32342, 33690, 35051, 35353, 34153, 33044, 33270, 33843, 33740, 33547, 33839, 33752, 32076, 29469, 28134, 28821, 30472, 32584, 35150, 36924, 36286, 33880, 32291, 32562, 33371, 33766, 33937, 33805, 32956, 31336, 29470, 28455, 29183, 31279, 33485, 35000, 35647, 35332, 34416, 33801, 33716, 33544, 33286, 33509, 33641, 32205, 29307, 27381, 28225, 30674, 32936, 34942, 36564, 36659, 35249, 33791, 33048, 32609, 32201, 32290, 33031, 33285, 32076, 30429, 29755, 29887, 30593, 32411, 34833, 36188, 35614, 33959, 32757, 32578, 33052, 33835, 34307, 33780, 32512, 31038, 29680, 29342, 30404, 31517, 31962, 33039, 35012, 35980, 35339, 34535, 34072, 33631, 33672, 33871], [35515, 36744, 35675, 32815, 31240, 31037, 30593, 30445, 31204, 32020, 32892, 34132, 34667, 34055, 33205, 32540, 32144, 32158, 32286, 32493, 33189, 34358, 35227, 34295, 30932, 27896, 29021, 33147, 35342, 34802, 34475, 34035, 32002, 30903, 32140, 32835, 32371, 33001, 34077, 33836, 32951, 32194, 31816, 32249, 32634, 32516, 33038, 33631, 32662, 31187, 31185, 32499, 34060, 35088, 34972, 34017, 32806, 31073, 29347, 29615, 32354, 35261, 36107, 35018, 33268, 31513, 30179, 29994, 31091, 32767, 34338, 35292, 35179, 33946, 32243, 31386, 32043, 32896, 32761, 32511, 32491, 31860, 31376, 31831, 32230, 33093, 35255, 35812, 33326, 31560, 32157, 32480, 31975, 32203, 33038, 33719, 33956, 33055, 31135, 29901], [30637, 31513, 33799, 35264, 36060, 36588, 35689, 33014, 30124, 28786, 29531, 31426, 33145, 33821, 32858, 30747, 29384, 30120, 32846, 36330, 38604, 38663, 37103, 34500, 31208, 28480, 27769, 28993, 30615, 31593, 32197, 32711, 32901, 32892, 33392, 34899, 36808, 37603, 36373, 33847, 31329, 29192, 27995, 29239, 32174, 33524, 32674, 32070, 32103, 31501, 31360, 33336, 36223, 37873, 37667, 35814, 32870, 29957, 28323, 29103, 31923, 33788, 32723, 30758, 30081, 30222, 30892, 32822, 35606, 38061, 39243, 38205, 35217, 32013, 29424, 27635, 27891, 30240, 32176, 32348, 31959, 31744, 31630, 32359, 34395, 36856, 38355, 37851, 35565, 33043, 31157, 29220, 27435, 27829, 30553, 32858, 33485, 33613, 33750, 33581], [31203, 31232, 31793, 32685, 33409, 33544, 33368, 33508, 34077, 34345, 33518, 32118, 31521, 31833, 31952, 31772, 32149, 32933, 33170, 32934, 32990, 33245, 33247, 33208, 33384, 33356, 32643, 31747, 31628, 32157, 32724, 33426, 33983, 33632, 32797, 32327, 31952, 31510, 31732, 32655, 33495, 33927, 33749, 32825, 32107, 32482, 33175, 33214, 32897, 32839, 32963, 32727, 32054, 31653, 31918, 32452, 33074, 33829, 34222, 33778, 32675, 31497, 31195, 32143, 33103, 33189, 33372, 33941, 33732, 32798, 32196, 31983, 31846, 31897, 32270, 33025, 33727, 33539, 32735, 32499, 32965, 33298, 33172, 32909, 32756, 32471, 31935, 31824, 32475, 32966, 32763, 32702, 33155, 33277, 32891, 32851, 33272, 33610, 33667, 33122], [30101, 23819, 20835, 24167, 31368, 37582, 41776, 45104, 44885, 37852, 29130, 26809, 29160, 30489, 31735, 34005, 33994, 30287, 25444, 23628, 26945, 32672, 37453, 41357, 44146, 42177, 34429, 27828, 27962, 30740, 32011, 33643, 35400, 33674, 28138, 23049, 23083, 27970, 33434, 37939, 42596, 45013, 40722, 32212, 28049, 29929, 31892, 32393, 33706, 34369, 31692, 25936, 21137, 22602, 29823, 36984, 41898, 45710, 45380, 37630, 28480, 26271, 28953, 30712, 32196, 34549, 34879, 31285, 25664, 22887, 25977, 32062, 37411, 41679, 44207, 41822, 34020, 27573, 28252, 31685, 32596, 33217, 34727, 33611, 28707, 23508, 22745, 27478, 33814, 38512, 42096, 44054, 40628, 32522, 27906, 30065, 32624, 32666, 33620, 34728], [40684, 36491, 25314, 13736, 8717, 10715, 18367, 31064, 44787, 52543, 51019, 44794, 40459, 38273, 35684, 34390, 36167, 36780, 30978, 20446, 11869, 9543, 13664, 23115, 36082, 48062, 52535, 48115, 41694, 38685, 37363, 36629, 38216, 40170, 37288, 27617, 15280, 7138, 6974, 13831, 25519, 40216, 52569, 54659, 46983, 39495, 37081, 36712, 37702, 40603, 41202, 34993, 23076, 11422, 6061, 8641, 17140, 29740, 44253, 54017, 52592, 44335, 38992, 37576, 36587, 37547, 40772, 40320, 31780, 18727, 9182, 7504, 12139, 20836, 33296, 46749, 53560, 49757, 42149, 38435, 37713, 37647, 39288, 41205, 38461, 28618, 15796, 7551, 7347, 13363, 23935, 38071, 50406, 53278, 47216, 40901, 38346, 37235, 37537, 39805]], "framecount": 13.0, "time": 1489540260145}
{"dataframe": [[32794, 31942, 31355, 31229, 31064, 31108, 31901, 33138, 34277, 34901, 34553, 33473, 32510, 32163, 32657, 33751, 34268, 33576, 32421, 31311, 30254, 29868, 30686, 32215, 33654, 34654, 35055, 34693, 33813, 32979, 32470, 32408, 32930, 33502, 33144, 32054, 31363, 31139, 30826, 30902, 32030, 33674, 34605, 34339, 33764, 33727, 33858, 33657, 33164, 32652, 32607, 32701, 31774, 30384, 30302, 31292, 32135, 33019, 34157, 34787, 34543, 33849, 33156, 32657, 32468, 32694, 33145, 33327, 32867, 31934, 31257, 31151, 31094, 31331, 32816, 34554, 34501, 33379, 33230, 33479, 33097, 33151, 33717, 33480, 32811, 32374, 31551, 30676, 30739, 31343, 32042, 33336, 34717, 34649, 33288, 32606, 33177, 33421, 32797, 32865], [32144, 33836, 36132, 37754, 38202, 37008, 34216, 30590, 27329, 26382, 28605, 31661, 33119, 33481, 33447, 32456, 31216, 31598, 34182, 37471, 38916, 37570, 34955, 32354, 29611, 27175, 27047, 29912, 33069, 34124, 33925, 33199, 31188, 29520, 31400, 35694, 38115, 38012, 37447, 35969, 32283, 28192, 26973, 29020, 31233, 31613, 31765, 32915, 33592, 32737, 31418, 31670, 34504, 37865, 38811, 37347, 34902, 31873, 28837, 27293, 28202, 30474, 32001, 32537, 33136, 33268, 31999, 30912, 32534, 36383, 39172, 39117, 37183, 34021, 29605, 26088, 26396, 29419, 31655, 32788, 33870, 33745, 32348, 31714, 32331, 33879, 36497, 38506, 37832, 35306, 32515, 29368, 26787, 27487, 31016, 32915, 31909, 31981, 34191, 34108], [32910, 30914, 29138, 28271, 28692, 30418, 32598, 34591, 36343, 36971, 35655, 33833, 33124, 32845, 32387, 32499, 32951, 32598, 31313, 29990, 29629, 30427, 31579, 32653, 34242, 36139, 36465, 34587, 32683, 32281, 32480, 32744, 33518, 34080, 33293, 31600, 30114, 29314, 29520, 30799, 32592, 34410, 35690, 35651, 34764, 34174, 33800, 33367, 32646, 31360, 31513, 33630, 33206, 29794, 29197, 31445, 31837, 31779, 34112, 35745, 34555, 33485, 33841, 33927, 33721, 34058, 34321, 33836, 32085, 29039, 27013, 28017, 30492, 32562, 34726, 36823, 37116, 35678, 34301, 33312, 32213, 31739, 32368, 33059, 32774, 31472, 29907, 29268, 30144, 31837, 33432, 34866, 35876, 35393, 33868, 33492, 34154, 33430, 31773, 32032], [30441, 32251, 34419, 35906, 35848, 34560, 33051, 31776, 30852, 30697, 31310, 31851, 32136, 33041, 34376, 34528, 33095, 31944, 32460, 33263, 32902, 32646, 33661, 34442, 33365, 31267, 30354, 31358, 32738, 33232, 33388, 33503, 32896, 32091, 32286, 32954, 33223, 33589, 34012, 33577, 32815, 32599, 31824, 30503, 31392, 34307, 35111, 32713, 30314, 30124, 32027, 35031, 36803, 35224, 31998, 30738, 31614, 32138, 31777, 32039, 33343, 34234, 33667, 32670, 32440, 32360, 31691, 31224, 32007, 33951, 35646, 35315, 33276, 31957, 31937, 31654, 31248, 31740, 32264, 32276, 32762, 33464, 33228, 32708, 33103, 33887, 34115, 33885, 33548, 33201, 32362, 30555, 29627, 31399, 33361, 33261, 33239, 33920, 33059, 31623], [33070, 32669, 33522, 35465, 36217, 35122, 33876, 32655, 30448, 28588, 29238, 31729, 33746, 34043, 32652, 30684, 29702, 30509, 33104, 36470, 38677, 38867, 37488, 34474, 30019, 26368, 26193, 29363, 32784, 33914, 33311, 32675, 32211, 31620, 31910, 34076, 36824, 37874, 36804, 34592, 32066, 30084, 29463, 30177, 31109, 31099, 30606, 30968, 32044, 32652, 32940, 34291, 36602, 37772, 36900, 35266, 33601, 31409, 28955, 27889, 29192, 31303, 32401, 32966, 33396, 32614, 31025, 31114, 34227, 38318, 39517, 36701, 33037, 31342, 30608, 29107, 28103, 29471, 31845, 33022, 33709, 34657, 33998, 31514, 30658, 32986, 35691, 36674, 36564, 35489, 33195, 30877, 29441, 28877, 29710, 31656, 32805, 32514, 32201, 32470], [31974, 31167, 31106, 31395, 32168, 33333, 33960, 33949, 34035, 33958, 33136, 32302, 32213, 32311, 32216, 32326, 32530, 32509, 32548, 32699, 32674, 32667, 32842, 32898, 33029, 33656, 33986, 33195, 32190, 31877, 31857, 32156, 33136, 33801, 33336, 32702, 32463, 32013, 31700, 32253, 33033, 33435, 33760, 33786, 33098, 32300, 32071, 32306, 32730, 33099, 33224, 33118, 32629, 31799, 31488, 32147, 32909, 33244, 33709, 34117, 33519, 32412, 32152, 32621, 32878, 32910, 33111, 33099, 32134, 30777, 30887, 32597, 33765, 33797, 34075, 34479, 33832, 32638, 31978, 31676, 31504, 31769, 32351, 33022, 33703, 33771, 32949, 32270, 32419, 32688, 32707, 33043, 33465, 33053, 32193, 32179, 33002, 33428, 33082, 32826], [31744, 25313, 20993, 22893, 29514, 36336, 41238, 44732, 45111, 38993, 29940, 26797, 29773, 31909, 32340, 33616, 33718, 30153, 24835, 22442, 25566, 31759, 37321, 41648, 44858, 43853, 36412, 28451, 27270, 30043, 31171, 32183, 34381, 34076, 29522, 24256, 23288, 27537, 33279, 37897, 41950, 44474, 41304, 32761, 27481, 29614, 32322, 32144, 33136, 34645, 32086, 26219, 22168, 23538, 29381, 35875, 40791, 44162, 44480, 38818, 30021, 26411, 29350, 32225, 32904, 33924, 34314, 31171, 25246, 21704, 24790, 31952, 37629, 41007, 43857, 43448, 36665, 29290, 28427, 30468, 30320, 30891, 33549, 34100, 30517, 25379, 23596, 27561, 33510, 37548, 40930, 43924, 41681, 33354, 27386, 28813, 32026, 32866, 33617, 34569], [40431, 35492, 25094, 13821, 7710, 8945, 15900, 27607, 42130, 52178, 51561, 44873, 40603, 39224, 37963, 38009, 39503, 38511, 31548, 19713, 9418, 6934, 12089, 21461, 34019, 47437, 54198, 50081, 41656, 36928, 35809, 36032, 38093, 40657, 39215, 30946, 18779, 9687, 8128, 13319, 23215, 36522, 48778, 52446, 46696, 40157, 38208, 38070, 38425, 40515, 41326, 36004, 24597, 12736, 6844, 8925, 16746, 28341, 42153, 52391, 52283, 44525, 38319, 36207, 35510, 36907, 40601, 41708, 35604, 23471, 11741, 6696, 9576, 18223, 31164, 45657, 54381, 52294, 44823, 39826, 37084, 34662, 34899, 37332, 36613, 29962, 20121, 12161, 10279, 15359, 24758, 35873, 46434, 50853, 45824, 37990, 35237, 36974, 39866, 42888]], "framecount": 14.0, "time": 1489540260239}
{"dataframe": [[34049, 34412, 32926, 31005, 30006, 29897, 30585, 32088, 33697, 34630, 34815, 34473, 33835, 33165, 32798, 33038, 33429, 33093, 32328, 31857, 31158, 30161, 30324, 31838, 33262, 34201, 34814, 34608, 33887, 33384, 32841, 32406, 32949, 33876, 33550, 32012, 30861, 30638, 30587, 30855, 32158, 33817, 34796, 35033, 34525, 33493, 32739, 32384, 32254, 32862, 33889, 33913, 32681, 31191, 30087, 29784, 30711, 32478, 34128, 35056, 35034, 34242, 33364, 32858, 32733, 32965, 33251, 33186, 32787, 32082, 31100, 30473, 30813, 31675, 32425, 33373, 34517, 34840, 34192, 33511, 33101, 32817, 32911, 33393, 33534, 32701, 31423, 30691, 30640, 31052, 31896, 32764, 33331, 33881, 34381, 34339, 33897, 33700, 33765, 33476], [31034, 30538, 34404, 37989, 38769, 37917, 35408, 31210, 27688, 26851, 28387, 30875, 32861, 33643, 33468, 32417, 30907, 30948, 33378, 36202, 38245, 39274, 37603, 33417, 29623, 27403, 26931, 28886, 31587, 32768, 33087, 33333, 32627, 31378, 31810, 34632, 37499, 38206, 37411, 35954, 33003, 29149, 26777, 26892, 29110, 32402, 34546, 34295, 32859, 31477, 30742, 31797, 34822, 37831, 38896, 37727, 34831, 31285, 28706, 27953, 28813, 30557, 31951, 32312, 32228, 32368, 32683, 32669, 32723, 34471, 37631, 39197, 37694, 34667, 31368, 27979, 26188, 27843, 31086, 32765, 33122, 33467, 32727, 30691, 30742, 34697, 38701, 39192, 37692, 35720, 32418, 28703, 26854, 27513, 30013, 32649, 33606, 33019, 32036, 31422], [33530, 32982, 30725, 29666, 29994, 30446, 31417, 33271, 35124, 36016, 35415, 33873, 32940, 33057, 33222, 33196, 33617, 33866, 32508, 30025, 28492, 28794, 30322, 32369, 34379, 35758, 35948, 34957, 33749, 33180, 33154, 33377, 33660, 33607, 32809, 31130, 29235, 28502, 29420, 31239, 33384, 35367, 36249, 35720, 34282, 32654, 32084, 33176, 34429, 34351, 33491, 32507, 30890, 28986, 28349, 29419, 31327, 33388, 35133, 36024, 35833, 34938, 34047, 33456, 33075, 32956, 33062, 33032, 32261, 30475, 28705, 28357, 29451, 31359, 33986, 36676, 37700, 36282, 34014, 32948, 33057, 33083, 32868, 32982, 32698, 30821, 28632, 28478, 29930, 31394, 33163, 35519, 36990, 36438, 34742, 33378, 32586, 32190, 32574, 33403], [32438, 34981, 36334, 34535, 30961, 29407, 30716, 31964, 32048, 32514, 33724, 34676, 34753, 33936, 32931, 32309, 31367, 30136, 30514, 32742, 34512, 34850, 34507, 33619, 32412, 31680, 31558, 31939, 32936, 33975, 33988, 32759, 31287, 30703, 31168, 32313, 33911, 35306, 35500, 34390, 32538, 30773, 30639, 32173, 33110, 33067, 33108, 32118, 30624, 31818, 34431, 34525, 33176, 33041, 33361, 33522, 33894, 33378, 31755, 30652, 30568, 31233, 32716, 33908, 33864, 33749, 34035, 33366, 31912, 31407, 32035, 32858, 33640, 34120, 33677, 32583, 31950, 32212, 32653, 32686, 32465, 31889, 30988, 30969, 32496, 34464, 35690, 35766, 34716, 33206, 31961, 31063, 30754, 31362, 32032, 31873, 31817, 32718, 33453, 33241], [32582, 32883, 34459, 36459, 37005, 36041, 34641, 32948, 30671, 28698, 28484, 29756, 31101, 32281, 33245, 33073, 31919, 31671, 33944, 37550, 38854, 36672, 33875, 32311, 30918, 29062, 27865, 28914, 32093, 34641, 34418, 32567, 31030, 30460, 31373, 34041, 37092, 38506, 37593, 35102, 32335, 30169, 28712, 28282, 29375, 31218, 32456, 33069, 33678, 33916, 33177, 32310, 33028, 35384, 37192, 36714, 34567, 32193, 29990, 28410, 28828, 31085, 32895, 33198, 32758, 31978, 31477, 32435, 34349, 35569, 35915, 35891, 35078, 33405, 31712, 30362, 29723, 30503, 31721, 31808, 31476, 31841, 32382, 32722, 33276, 34239, 35372, 35989, 35824, 35757, 35441, 32518, 27676, 25741, 28273, 31583, 33399, 34427, 34443, 32990], [32937, 32620, 31817, 31483, 31829, 32418, 33253, 34058, 34223, 33942, 33516, 32586, 31471, 31235, 31892, 32611, 33229, 33776, 33720, 32864, 31912, 31728, 32353, 33038, 33419, 33562, 33151, 32471, 32521, 32903, 32510, 32032, 32618, 33656, 33890, 33022, 31830, 31486, 32048, 32421, 32544, 33219, 33990, 33987, 33452, 32825, 32285, 32157, 32383, 32572, 32756, 32903, 32642, 32268, 32362, 32657, 32761, 32821, 32973, 33164, 33233, 33102, 33137, 33411, 33178, 32437, 32301, 32713, 32473, 31699, 31399, 31681, 32321, 33198, 33861, 34231, 34515, 34198, 33019, 31928, 31558, 31615, 32146, 33097, 33292, 32248, 31587, 32373, 33333, 33503, 33507, 33471, 32923, 32311, 32312, 32650, 32718, 32575, 32758, 33295], [32875, 27637, 22142, 21925, 27798, 34713, 39977, 44614, 46328, 40724, 31085, 26585, 28505, 30612, 31569, 33486, 34474, 31801, 26511, 23054, 25119, 30839, 35902, 39940, 43890, 44144, 37453, 29635, 28275, 30546, 30979, 31568, 33934, 34478, 30750, 24766, 21965, 25783, 32589, 37549, 41234, 44494, 43162, 35377, 28429, 28353, 30814, 31541, 32710, 34238, 32628, 27839, 23749, 24187, 29025, 34558, 38791, 42363, 43795, 39456, 31142, 27016, 29601, 32669, 33380, 34306, 34824, 31946, 26338, 22484, 23922, 29241, 34714, 39321, 43535, 44617, 39019, 30789, 28103, 30381, 31625, 32054, 33787, 34155, 30357, 24180, 21375, 25540, 32830, 38138, 42075, 45454, 43666, 34835, 27153, 27209, 29904, 30653, 32690, 35815], [44065, 39656, 28189, 14201, 5612, 6130, 13444, 24859, 39368, 52227, 55360, 48531, 40471, 36022, 34001, 35093, 39787, 42658, 36903, 23809, 12773, 9420, 10716, 14736, 24691, 39967, 51880, 53197, 47674, 43857, 43380, 42671, 40623, 37410, 30763, 19531, 8562, 5045, 10843, 22131, 34316, 44660, 51600, 52002, 43875, 33884, 31125, 34001, 36717, 40264, 44145, 41046, 28987, 15790, 8126, 7222, 13451, 25756, 39876, 49921, 50726, 44120, 39172, 39481, 40374, 40467, 41725, 41163, 34545, 23392, 12680, 6292, 6077, 12675, 26149, 43350, 55292, 55268, 48534, 43596, 40707, 38328, 37989, 37732, 33242, 24311, 14217, 7367, 7451, 14349, 25373, 39077, 52372, 57669, 51845, 42305, 36160, 32883, 31961, 34957]], "framecount": 15.0, "time": 1489540260349}
{"dataframe": [[32723, 32187, 32062, 31640, 30747, 30245, 30793, 32170, 33647, 34551, 34707, 34275, 33502, 32969, 33032, 33211, 33294, 33656, 33569, 31997, 30109, 29677, 30363, 31307, 32808, 34581, 35218, 34552, 33943, 33740, 33166, 32444, 32513, 33157, 33196, 32401, 31633, 31087, 30583, 30983, 32603, 33931, 34077, 33864, 33680, 33112, 32473, 32519, 33299, 34108, 34292, 33808, 32755, 31367, 30491, 30594, 31167, 31761, 32381, 33140, 33966, 34322, 33944, 33477, 33432, 33744, 34302, 34461, 33312, 31353, 30021, 29658, 29885, 30851, 32475, 33998, 34863, 35005, 34575, 33700, 32859, 32941, 33663, 33705, 33089, 32504, 31589, 30455, 30079, 30547, 31416, 32627, 33921, 34729, 34744, 34292, 34049, 33963, 33446, 32826], [31817, 33236, 35106, 37076, 38413, 37886, 35196, 31408, 28088, 26744, 28147, 31077, 33038, 33269, 32990, 32620, 31712, 31130, 32482, 35598, 38411, 39164, 37515, 34228, 30430, 27181, 26278, 28820, 32052, 32809, 32640, 33439, 33222, 31517, 31546, 33917, 36041, 37673, 38948, 36950, 31791, 28449, 28369, 28946, 30057, 32144, 33142, 32512, 32007, 31835, 31402, 31837, 34235, 37417, 39091, 37952, 34604, 31407, 29984, 29224, 28468, 29481, 32134, 33485, 32749, 31654, 30988, 30986, 32569, 35589, 38112, 38785, 37806, 35343, 31682, 28337, 27016, 27943, 29963, 32243, 34179, 34130, 31983, 30515, 31191, 33180, 35984, 38427, 38703, 37064, 34562, 31183, 27774, 26603, 28434, 31072, 32278, 32461, 32795, 32845], [33638, 32929, 31125, 28604, 27467, 29127, 32111, 34645, 36622, 37609, 36411, 33872, 32365, 32107, 31966, 32307, 33339, 33552, 32157, 30403, 29682, 30104, 31026, 32057, 33413, 35067, 35812, 34829, 33572, 33604, 34095, 33852, 33294, 32989, 32497, 31227, 29510, 28531, 29166, 31099, 33290, 35112, 36374, 36307, 34483, 32521, 32193, 33016, 33841, 34311, 33908, 32385, 30618, 29353, 28737, 29353, 31466, 33828, 35261, 35914, 35781, 34610, 33263, 32627, 32443, 32524, 33133, 33724, 33167, 31438, 29877, 29470, 30027, 31212, 32961, 34866, 36035, 35663, 33981, 32420, 32272, 33439, 34681, 34980, 34163, 32102, 29190, 27319, 27794, 29725, 32099, 34770, 36921, 37253, 35943, 34448, 33433, 32607, 32109, 32340], [32894, 33028, 33899, 35339, 35627, 33660, 31347, 30738, 31002, 30870, 31250, 32686, 33644, 33552, 33390, 32958, 32042, 32361, 34280, 34950, 33120, 31659, 32281, 32955, 32682, 32513, 32306, 32122, 32730, 32936, 32171, 32220, 32960, 32847, 32608, 33162, 33680, 33659, 33298, 32788, 32814, 33336, 32978, 31915, 31858, 32419, 31995, 31066, 31057, 32237, 34061, 35355, 35058, 33967, 33558, 33390, 32353, 30975, 30262, 30504, 31814, 33469, 34193, 34289, 34458, 33720, 31901, 30854, 31185, 32000, 33217, 34459, 34629, 33968, 33103, 31873, 31148, 31796, 32512, 32372, 32190, 32530, 33687, 34889, 33744, 31034, 30972, 33386, 34130, 33135, 32866, 32621, 31775, 32191, 33515, 33513, 32846, 33023, 32979, 31909], [31789, 32639, 34874, 36374, 36028, 34558, 33111, 31800, 30492, 30241, 31636, 32585, 31520, 30480, 31085, 31909, 32060, 32396, 33601, 35720, 37724, 37960, 36322, 34065, 31717, 29142, 27249, 27725, 30254, 32256, 32695, 33114, 34061, 34160, 33315, 33437, 35070, 36128, 35470, 34742, 34412, 32107, 28131, 26921, 29686, 32411, 33032, 33326, 33658, 32807, 31651, 31952, 33806, 36216, 37680, 36897, 34278, 31367, 29318, 28988, 30578, 32424, 32553, 31483, 30883, 30932, 31438, 32777, 34572, 36253, 37682, 37922, 36184, 33444, 30772, 28261, 27101, 29029, 32424, 33572, 32457, 32090, 32881, 32922, 32358, 33163, 35525, 37321, 37063, 35331, 33139, 30728, 28592, 28160, 29889, 32025, 33009, 33174, 33023, 32499], [33544, 33201, 32732, 32399, 31696, 30784, 31116, 33051, 34793, 34975, 34035, 32893, 32144, 31971, 32084, 32373, 32913, 33150, 32628, 32088, 32300, 32795, 32992, 33121, 33280, 33211, 32925, 32483, 32096, 32297, 32898, 33172, 33222, 33392, 33327, 32887, 32419, 31868, 31328, 31628, 32741, 33346, 33207, 33413, 33858, 33639, 33127, 32894, 32632, 32360, 32269, 32020, 31805, 32146, 32589, 32791, 33241, 33603, 33242, 32921, 33193, 33143, 32520, 32295, 32509, 32513, 32766, 33542, 33609, 32521, 31636, 31679, 32063, 32575, 33282, 33748, 33761, 33411, 32651, 31990, 32205, 32998, 33417, 33196, 32789, 32507, 32218, 31976, 32076, 32346, 32511, 32906, 33607, 33867, 33414, 32964, 32912, 32876, 32695, 32689], [34861, 29340, 23924, 23106, 27513, 33529, 38088, 41725, 44220, 41468, 33058, 27233, 28626, 31371, 32054, 33643, 35136, 32550, 26896, 23242, 24725, 29621, 34660, 39130, 43053, 43721, 38240, 30238, 27478, 30297, 32555, 33122, 34378, 34644, 31067, 25223, 22279, 24877, 30271, 35604, 40905, 44999, 43717, 35967, 28786, 28595, 31557, 32479, 33186, 34485, 32990, 27951, 22870, 22125, 26785, 33498, 39263, 43701, 45482, 41407, 32630, 27044, 28428, 31141, 31896, 33485, 35190, 32986, 27009, 22179, 23258, 29474, 35722, 39842, 43283, 44384, 39195, 30862, 27606, 29600, 30919, 31561, 33846, 34978, 31973, 26324, 22521, 24271, 30290, 36221, 40650, 44240, 44063, 37136, 29288, 28142, 30692, 31524, 32471, 34255], [39008, 38498, 31208, 19767, 10206, 7690, 12797, 23572, 37918, 50615, 53826, 47178, 39932, 37656, 37570, 37874, 39330, 39796, 35224, 24813, 13407, 7618, 9578, 17120, 28477, 42123, 52355, 52488, 44899, 38649, 36797, 36655, 37834, 40254, 40249, 33920, 21968, 10673, 6555, 10340, 19376, 32449, 46567, 53820, 50087, 42328, 38335, 37159, 36664, 38528, 41319, 39314, 29832, 16989, 8068, 7137, 13104, 23624, 37305, 49915, 53940, 48126, 40702, 37312, 36036, 36143, 38931, 41275, 37639, 26964, 14700, 7734, 8120, 14424, 26298, 41995, 53705, 53754, 45615, 39068, 36425, 34968, 35889, 39646, 41235, 36003, 24514, 12110, 5700, 8623, 18710, 32073, 45188, 52524, 50267, 43553, 39708, 38084, 36645, 37922]], "framecount": 16.0, "time": 1489540260442}
{"dataframe": [[32792, 32770, 31873, 30675, 30226, 30520, 31224, 32406, 33783, 34640, 34770, 34474, 33840, 33024, 32722, 33166, 33502, 33138, 32337, 31339, 30579, 30785, 31661, 32214, 32589, 33533, 34410, 34110, 33330, 33359, 33722, 33382, 32866, 33280, 33938, 32938, 30726, 29937, 30797, 31342, 31654, 32931, 34445, 34832, 34220, 33529, 33138, 32972, 33153, 33667, 33777, 33030, 32079, 31311, 30523, 30309, 31026, 31757, 32609, 34322, 35302, 34285, 33294, 33556, 33728, 33649, 33920, 33631, 32493, 31449, 30521, 29700, 29927, 31211, 32671, 34016, 34941, 35071, 34712, 33985, 32866, 32264, 32699, 33249, 33241, 32755, 31786, 30894, 30885, 31366, 31790, 32602, 33847, 34511, 34017, 33058, 32539, 32621, 33196, 34075], [32079, 31985, 34291, 37590, 38942, 38121, 36246, 32693, 27987, 25847, 27936, 30887, 32014, 32584, 33281, 32948, 32020, 31685, 32424, 35085, 38477, 38961, 36389, 33972, 31975, 29077, 27138, 28174, 30507, 31957, 32745, 33473, 33534, 32149, 30502, 31826, 36233, 39206, 38971, 37704, 35138, 30191, 25919, 25876, 28972, 31597, 32514, 33059, 33566, 32933, 31775, 32168, 34235, 36483, 38006, 37925, 35849, 33075, 30132, 27018, 26576, 29989, 32898, 33141, 33178, 32947, 31460, 31026, 32464, 34246, 36718, 39353, 38984, 35295, 31124, 28056, 27169, 28904, 30890, 31712, 32817, 33828, 33091, 31722, 31439, 32397, 34670, 37430, 38590, 37376, 34623, 31350, 28601, 27369, 28231, 30554, 32631, 33651, 33763, 32813], [32933, 32839, 31398, 29460, 28654, 29364, 31000, 33475, 36274, 37432, 35956, 33857, 33084, 32841, 32268, 32181, 32882, 33426, 32885, 31240, 29823, 29808, 30475, 31194, 32820, 35142, 36330, 35609, 34032, 32976, 32863, 33109, 33283, 33646, 33966, 33033, 30608, 28278, 27426, 28400, 31260, 35030, 37538, 37559, 35972, 34367, 33402, 32717, 32105, 31980, 32356, 32490, 31842, 30598, 29601, 29783, 31041, 32591, 34352, 36078, 36362, 34890, 33463, 33000, 32747, 32595, 32843, 33072, 32896, 32018, 30287, 28841, 29193, 31183, 33660, 35689, 36104, 34750, 33557, 33420, 33093, 32681, 33338, 34180, 33839, 32543, 30808, 29119, 28530, 29660, 31923, 34078, 35361, 35937, 35816, 34688, 33184, 32236, 31936, 32375], [31062, 31230, 32148, 33548, 34724, 34884, 34252, 33194, 31646, 30674, 31683, 33491, 33954, 33325, 32725, 32169, 31376, 30424, 30398, 32451, 34963, 35488, 35004, 35061, 34361, 32613, 31793, 31845, 31155, 30030, 29864, 31194, 33506, 34957, 33902, 31990, 32326, 34472, 35613, 35019, 33657, 32224, 31359, 31189, 31065, 31092, 31858, 32820, 33211, 33197, 33018, 32746, 32778, 33289, 33966, 34530, 34565, 33554, 31916, 30863, 30888, 31450, 32039, 32662, 33241, 33404, 33138, 32738, 32355, 32362, 33098, 34067, 34563, 34386, 33410, 31794, 30875, 31633, 32409, 31728, 31583, 33165, 33820, 32597, 32268, 33316, 33373, 32795, 33347, 33904, 33584, 34107, 35036, 33234, 29381, 27890, 29605, 31692, 33319, 34971], [32024, 32245, 33448, 35475, 37301, 37408, 35302, 32096, 29606, 29151, 30513, 31846, 31623, 30584, 30482, 31489, 32426, 33002, 34352, 36977, 38908, 37787, 34555, 32121, 30774, 28789, 27116, 28545, 32080, 34046, 34029, 33701, 32896, 31628, 31434, 32793, 34854, 36796, 37587, 36402, 33761, 30765, 28233, 27568, 29776, 32849, 33748, 32709, 31980, 31992, 31925, 32130, 33653, 36240, 38072, 37582, 35065, 32108, 29791, 28388, 28480, 30385, 32659, 33524, 33086, 32377, 31777, 31438, 32193, 34715, 37443, 37812, 36012, 33969, 31823, 29523, 28836, 30181, 31375, 31413, 31440, 32082, 32858, 33184, 33157, 33731, 35025, 35802, 35960, 36361, 35920, 32857, 28335, 25858, 27299, 30865, 33483, 34216, 33925, 33241], [32858, 32707, 32069, 31451, 31408, 32018, 32923, 33697, 34154, 34131, 33566, 32956, 32692, 32445, 32122, 32050, 32246, 32703, 33251, 33199, 32636, 32495, 32608, 32204, 31756, 32018, 32765, 33607, 34315, 34421, 33786, 32926, 32312, 32129, 32301, 32261, 31819, 31663, 31869, 32014, 32667, 33956, 34514, 33992, 33495, 33133, 32479, 32018, 32026, 32261, 32759, 33227, 33047, 32502, 32358, 32503, 32292, 31746, 31655, 32590, 34007, 34793, 34627, 33989, 33236, 32477, 31827, 31466, 31674, 32205, 32088, 31305, 31283, 32579, 34058, 34782, 34697, 34038, 33354, 32931, 32372, 31814, 31929, 32401, 32487, 32364, 32409, 32400, 32293, 32425, 32728, 32932, 33201, 33662, 33953, 33831, 33440, 32773, 31913, 31479], [33314, 29023, 24315, 22863, 26592, 32958, 38192, 42110, 44952, 42731, 34041, 27112, 27976, 30946, 31640, 33134, 35057, 33396, 28265, 23506, 23248, 28167, 34229, 38483, 42083, 44327, 40804, 32574, 28044, 29783, 31698, 31851, 33180, 34253, 31408, 25548, 21931, 24509, 31065, 36788, 40864, 44285, 43996, 37100, 29288, 28021, 30568, 31351, 31918, 33811, 33836, 29994, 24677, 22939, 26981, 32969, 37229, 40694, 43673, 42199, 34903, 28887, 29601, 31961, 31720, 32391, 34342, 32900, 27665, 23062, 22839, 27243, 33625, 39465, 43931, 45528, 40971, 31827, 26930, 29303, 31806, 31799, 33187, 34634, 31785, 26148, 23137, 25341, 30479, 35241, 39193, 42809, 43342, 37835, 30557, 28682, 30887, 31765, 32125, 33883], [41001, 39578, 30750, 18437, 8909, 6101, 10523, 20961, 35572, 49602, 55136, 50052, 42500, 38889, 36995, 35290, 36217, 38851, 37638, 29154, 17251, 9442, 9012, 14628, 25145, 38952, 50144, 52098, 46303, 40605, 38101, 36644, 36511, 39108, 41465, 37647, 25726, 12128, 5330, 7170, 15286, 28695, 44618, 55042, 54416, 47277, 40745, 35850, 32577, 33568, 38229, 40602, 35010, 22297, 10062, 5556, 10193, 21601, 36722, 50181, 54272, 47505, 38612, 34911, 35001, 36856, 40851, 43743, 40179, 29612, 17101, 8629, 7337, 13281, 24728, 38518, 48992, 50302, 44133, 39227, 39188, 40180, 40615, 41666, 41257, 35570, 24277, 12270, 5723, 6826, 14685, 28337, 44440, 54751, 52972, 43895, 37356, 35654, 36364, 39508]], "framecount": 17.0, "time": 1489540260552}
{"dataframe": [[34597, 34278, 33266, 31779, 30145, 29175, 29609, 31223, 32978, 34219, 34925, 34976, 34517, 34119, 33813, 33285, 32714, 32422, 32311, 31850, 30823, 30128, 30605, 31636, 32619, 34037, 35362, 35096, 33747, 33036, 32903, 32707, 32937, 33438, 33278, 32618, 31947, 31128, 30446, 30631, 31767, 33037, 33797, 34370, 34679, 34046, 33122, 32874, 32865, 32986, 33586, 33589, 32310, 31228, 31091, 30799, 30486, 31450, 33279, 34581, 34993, 34615, 33698, 32970, 32759, 32861, 33204, 33405, 32970, 32198, 31502, 30798, 30248, 30402, 31654, 33881, 35862, 35936, 34357, 33047, 32545, 32095, 32059, 32890, 33445, 32944, 32214, 31800, 31394, 31185, 31731, 32778, 33396, 33353, 33450, 33882, 33839, 33368, 33336, 33595], [31364, 31066, 32778, 35721, 38264, 38910, 36933, 33055, 29565, 28218, 28610, 29739, 31089, 32111, 32651, 32765, 32072, 31137, 31982, 35168, 38159, 38614, 37248, 35511, 33002, 29292, 26506, 27227, 30239, 32181, 32607, 32866, 32618, 31823, 32164, 33975, 35821, 37188, 38296, 37934, 34650, 30061, 27343, 27090, 28352, 30649, 32740, 33652, 33898, 33296, 31695, 31244, 33256, 35772, 37445, 38671, 37958, 33899, 29056, 26632, 27127, 29613, 32237, 33204, 32982, 32652, 31876, 31158, 32140, 34679, 37329, 39120, 38796, 35813, 31934, 28637, 26276, 26680, 30164, 32692, 32662, 33154, 34074, 32884, 31489, 32587, 34935, 36977, 38361, 37875, 34790, 30575, 27610, 27300, 29057, 31039, 32288, 33098, 33403, 32815], [33500, 34009, 32774, 30687, 29379, 29391, 30543, 32454, 34268, 35230, 35203, 34395, 33531, 33358, 33503, 33387, 33431, 33765, 33331, 31494, 29339, 28475, 29322, 31125, 33008, 34725, 36030, 35850, 34201, 33184, 33680, 34221, 34039, 33520, 32427, 30669, 29350, 29234, 29773, 30612, 32252, 34577, 36268, 36209, 34822, 33525, 32990, 32884, 33081, 33546, 33610, 32684, 31020, 29377, 28605, 29312, 31312, 33722, 35798, 36823, 35933, 33706, 32269, 32482, 33137, 33308, 33320, 33469, 33274, 31943, 29548, 27816, 28604, 31444, 34181, 35748, 36391, 35956, 34376, 32919, 32588, 32744, 32832, 33143, 33424, 32870, 31326, 29580, 28725, 29282, 31047, 33606, 36093, 37047, 35975, 34233, 33282, 33128, 33051, 32724], [35488, 34487, 33686, 33726, 33470, 32556, 31876, 31877, 32060, 32184, 32571, 32925, 32553, 31897, 31869, 32259, 32567, 32858, 33134, 33618, 34647, 35383, 34690, 33023, 31588, 30651, 30147, 30710, 32444, 33796, 33524, 32598, 32303, 32301, 32606, 34121, 35444, 34440, 32683, 32415, 32490, 31766, 31356, 31717, 32191, 32985, 34168, 34228, 32290, 30173, 30094, 31751, 33590, 35311, 36635, 35984, 33427, 31541, 31086, 30638, 30748, 32314, 33113, 32180, 32137, 33078, 32764, 32541, 33877, 34508, 33911, 33995, 33875, 32311, 31254, 31582, 31559, 31190, 32049, 33632, 34175, 33444, 32473, 32005, 32066, 32544, 33472, 34172, 33808, 33430, 34038, 33661, 31151, 29515, 31087, 33765, 34211, 32064, 30514, 31923], [32577, 32491, 33406, 35306, 36925, 36584, 34590, 32504, 30667, 29069, 28878, 30430, 31915, 32384, 32857, 33261, 32600, 31725, 32253, 34263, 36565, 37745, 36999, 34555, 31383, 28750, 28070, 30023, 32766, 33254, 31641, 30714, 31290, 32394, 33573, 34470, 35104, 36003, 36489, 35581, 33964, 32261, 30022, 28331, 29203, 31606, 32768, 32499, 32181, 32053, 32056, 32530, 33555, 35284, 37331, 37842, 35835, 32812, 30209, 28463, 28600, 30632, 32258, 32332, 32135, 32464, 33001, 33252, 33014, 33381, 35209, 36783, 36275, 34468, 32704, 30907, 29161, 28825, 30422, 32356, 33022, 32490, 31900, 32291, 33513, 34465, 34698, 34755, 35093, 35260, 34241, 31984, 29851, 29309, 30618, 32438, 33220, 32949, 32395, 31849], [31859, 32636, 33128, 33038, 32631, 32311, 32292, 32637, 33065, 33120, 32913, 32913, 33118, 33196, 33117, 33108, 33197, 33058, 32462, 31752, 31497, 31768, 32258, 32833, 33435, 33857, 33794, 33108, 32367, 32346, 32801, 33116, 33348, 33385, 32716, 31735, 31412, 31763, 32149, 32542, 33393, 34376, 34408, 33436, 32469, 31872, 31697, 32245, 32990, 33280, 33465, 33497, 32798, 31938, 31739, 31933, 32279, 32914, 33444, 33396, 33070, 33036, 33200, 33016, 32501, 32433, 33131, 33602, 33065, 32271, 31861, 31532, 31448, 31913, 32599, 33490, 34412, 34363, 33490, 33065, 32827, 32189, 32339, 33391, 33402, 32164, 31291, 31217, 31568, 32202, 32914, 33711, 34288, 33930, 33217, 33181, 33263, 32923, 32820, 32884], [34284, 30849, 25297, 22588, 25680, 31407, 36047, 40474, 44696, 43707, 35590, 28223, 28307, 31244, 31897, 32731, 34717, 34007, 28972, 23115, 22120, 27359, 34039, 38680, 42363, 44636, 41479, 33137, 27425, 28474, 31019, 31784, 33361, 35100, 33003, 27170, 22679, 23864, 29286, 34722, 39385, 43969, 45028, 38802, 30057, 27329, 29878, 31482, 32214, 34187, 34777, 31320, 25417, 21992, 24750, 31410, 37173, 41251, 44457, 43305, 35314, 27691, 27802, 31133, 32121, 33453, 35781, 34720, 29375, 23478, 21513, 25267, 32043, 38256, 42956, 45375, 42363, 33911, 27669, 28583, 31206, 31512, 32808, 35022, 33442, 27873, 23348, 23917, 28759, 34175, 38528, 42332, 43525, 38574, 30890, 28637, 31457, 32932, 33344, 35065], [43299, 42022, 32599, 18600, 7613, 5024, 10369, 20718, 34620, 48756, 55084, 50025, 41656, 38121, 37674, 37311, 38583, 40600, 38007, 28177, 15596, 7620, 7570, 13933, 24688, 38722, 51628, 55407, 48789, 40601, 36723, 35048, 34815, 37218, 39029, 35309, 25634, 14884, 9243, 11127, 18708, 29932, 42930, 51879, 50533, 42405, 36879, 35827, 36052, 38187, 42068, 42352, 35003, 22353, 11006, 6330, 9021, 17637, 31264, 46138, 53975, 50728, 43115, 38906, 37760, 37533, 39028, 40952, 38801, 29937, 17367, 8045, 6390, 11744, 22378, 36783, 49959, 54414, 49179, 42028, 38298, 36423, 36083, 38766, 41213, 37599, 26805, 14200, 6699, 7169, 14478, 26570, 40866, 52357, 54913, 48416, 40615, 36957, 35796, 35936]], "framecount": 18.0, "time": 1489540260645}
{"dataframe": [[33442, 32997, 32532, 31836, 30936, 30295, 30314, 31175, 32788, 34561, 35488, 35032, 33886, 33107, 32878, 32782, 32713, 32877, 33010, 32424, 31287, 30703, 31119, 31773, 32099, 32846, 34479, 35423, 34323, 32561, 32077, 32730, 33388, 33764, 33971, 33495, 32046, 30628, 30242, 30566, 31097, 32174, 33840, 35054, 35014, 34250, 33574, 33023, 32646, 32819, 33269, 33183, 32348, 31299, 30538, 30277, 30926, 32575, 34209, 34962, 34939, 34099, 32666, 31839, 32088, 32773, 33573, 34128, 33753, 32693, 31889, 31450, 30866, 30527, 31427, 33031, 33769, 33824, 34147, 34042, 33107, 32760, 33498, 34163, 34377, 33936, 31763, 29086, 28954, 30911, 32234, 32891, 33967, 34753, 34447, 33652, 33224, 33220, 33168, 32974], [31950, 31803, 32846, 35317, 38199, 38999, 36918, 33646, 30249, 27303, 26732, 29038, 31671, 32965, 33493, 33311, 32339, 31703, 32186, 33915, 36648, 38527, 37628, 35131, 33140, 30561, 26641, 25481, 29492, 33910, 34568, 33424, 32773, 31902, 30881, 31734, 34826, 37518, 37886, 36999, 35667, 32871, 29105, 26945, 27586, 29788, 31943, 33361, 33763, 33076, 32035, 31837, 33066, 35421, 37866, 38806, 37015, 33209, 29656, 27694, 27614, 29560, 31987, 32856, 32908, 33236, 32598, 31002, 31126, 33871, 36827, 38155, 38232, 36791, 32908, 28798, 27840, 28958, 29513, 30418, 32585, 33998, 33564, 32424, 31408, 31294, 33389, 36958, 39139, 38602, 36105, 32268, 28162, 26411, 28260, 31207, 32468, 32547, 32905, 32973], [32256, 31819, 31195, 30091, 29312, 30086, 32100, 34107, 35543, 36043, 35137, 33379, 32218, 32256, 32799, 33250, 33642, 33850, 33345, 31828, 30021, 29280, 29848, 30810, 32102, 34374, 36550, 36434, 34422, 33158, 33184, 32977, 32588, 33002, 33394, 32488, 30806, 29668, 29585, 30386, 31753, 33319, 34851, 36007, 35963, 34622, 33208, 32532, 32439, 32791, 33162, 32882, 32034, 30972, 29925, 29775, 31037, 32508, 33322, 34364, 35606, 35638, 34748, 34119, 33243, 31918, 31484, 32093, 32482, 32194, 31481, 30632, 30263, 30930, 32604, 34645, 35877, 35436, 33901, 32715, 32435, 32584, 32960, 33639, 34084, 33586, 32136, 30270, 28823, 28765, 30332, 32810, 35360, 36874, 36184, 34045, 32704, 32638, 32765, 33094], [34019, 34184, 33876, 34509, 34583, 33088, 30889, 29854, 31626, 34447, 34721, 32981, 32000, 31505, 30926, 31584, 32909, 33270, 33610, 34621, 34512, 33055, 32448, 33097, 33331, 32557, 31597, 31295, 31742, 32013, 31630, 31813, 33228, 34476, 34643, 34379, 33908, 33074, 32485, 32281, 31797, 31469, 32073, 32593, 32171, 31889, 32323, 32772, 33329, 34313, 34761, 34061, 33135, 32561, 31841, 31206, 31488, 32194, 32646, 33426, 33727, 32210, 31458, 33681, 35329, 33761, 31848, 31452, 31216, 31340, 32828, 34362, 34637, 34065, 33131, 32270, 31851, 31535, 31539, 32397, 33198, 33298, 33433, 33217, 31995, 31362, 32333, 33637, 34642, 35097, 33877, 31684, 30792, 31377, 32194, 32850, 33100, 32865, 32804, 32879], [31393, 31233, 32033, 34394, 37034, 37856, 36786, 34792, 32051, 29261, 28091, 28952, 30493, 31650, 32462, 33058, 33298, 33284, 33436, 34036, 34976, 35980, 36733, 36331, 33644, 29427, 26622, 27284, 30368, 33145, 34106, 33825, 33241, 32522, 31990, 32609, 34495, 36143, 36419, 35614, 34105, 32077, 29964, 28416, 28407, 30154, 32606, 34960, 35992, 33830, 30092, 29300, 32083, 35093, 36741, 37371, 36609, 34414, 31663, 28951, 27708, 29618, 32760, 33483, 32231, 31933, 32729, 32827, 32127, 32307, 34214, 36478, 37243, 36321, 34404, 31581, 28744, 28381, 30735, 32284, 31510, 31280, 32654, 32870, 31578, 31983, 34702, 37010, 37699, 37275, 35525, 32595, 29819, 28113, 27630, 28617, 31181, 34239, 35377, 33320], [32379, 31769, 31725, 31682, 31408, 31816, 32997, 33907, 34295, 34557, 34266, 33113, 32002, 31603, 31698, 32263, 33115, 33535, 33264, 32553, 31836, 31791, 32329, 32473, 32324, 33070, 34366, 34407, 33117, 32362, 32778, 33167, 32823, 32318, 32182, 32144, 31934, 31950, 32398, 32849, 33162, 33454, 33513, 33456, 33576, 33407, 32628, 31967, 31987, 32330, 32503, 32417, 32407, 32847, 33332, 33173, 32748, 32766, 32840, 32521, 32455, 33024, 33471, 33348, 33015, 32655, 32406, 32565, 32771, 32486, 32115, 32163, 32326, 32475, 32848, 33163, 33292, 33753, 34221, 33662, 32323, 31444, 31528, 32240, 33015, 33349, 33167, 32716, 32187, 31957, 32415, 33278, 33924, 33898, 32934, 31700, 31598, 32563, 33137, 33122], [34673, 29751, 23570, 20912, 24002, 30780, 37224, 41758, 44716, 43935, 37117, 29357, 27829, 30273, 31327, 32290, 34237, 33798, 29779, 25124, 23695, 26827, 31972, 36473, 40504, 43879, 42824, 35554, 28789, 28707, 31211, 31738, 32609, 34350, 33127, 27905, 22972, 23443, 28967, 34690, 38642, 42252, 44066, 40039, 32112, 28350, 30336, 31860, 31644, 32954, 34045, 31120, 25604, 22657, 25106, 30919, 36726, 41236, 43978, 42857, 36324, 28988, 27737, 30972, 32605, 32933, 34396, 34623, 30588, 24138, 21296, 25177, 31829, 37038, 41455, 45024, 43327, 35342, 28794, 29086, 31301, 31463, 32366, 34204, 33119, 28167, 23094, 22963, 28165, 34004, 38242, 42442, 45053, 41326, 32777, 28004, 29467, 31176, 31453, 33159], [38156, 39177, 33744, 22511, 12222, 8235, 10898, 18929, 31617, 45694, 53612, 50734, 42686, 37871, 36741, 36501, 38001, 40734, 39624, 31284, 18888, 9390, 7287, 12089, 21680, 34999, 48338, 53638, 48313, 41088, 39169, 39342, 38325, 38396, 39308, 36099, 26409, 14861, 8615, 9849, 15828, 25187, 38197, 50406, 53802, 47868, 41024, 38271, 37718, 38401, 40262, 39545, 32117, 19168, 7221, 2927, 8103, 20409, 36581, 51877, 58873, 53594, 42388, 34795, 32421, 32699, 35780, 40355, 40964, 34081, 22468, 12432, 8467, 11139, 19399, 32340, 46028, 52273, 48092, 41644, 39919, 40237, 40234, 41573, 41845, 36031, 24315, 12036, 5068, 6435, 14852, 26962, 40688, 52538, 55539, 48518, 40238, 36401, 34653, 34706]], "framecount": 19.0, "time": 1489540260755}
{"dataframe": [[33115, 33594, 33397, 31919, 30192, 29635, 30410, 31754, 33188, 34613, 35371, 34742, 33551, 33042, 32839, 32418, 32574, 33479, 33826, 32900, 31464, 30512, 30383, 30915, 31894, 33238, 34574, 35063, 34465, 33597, 32956, 32344, 32153, 32983, 33998, 33814, 32610, 31488, 30833, 30690, 31047, 31587, 32442, 33838, 34716, 34243, 33773, 34281, 34380, 33568, 33106, 32721, 31484, 30552, 30885, 31204, 30883, 31274, 32855, 34477, 35275, 34957, 33716, 32782, 33068, 33657, 33433, 32906, 32677, 32078, 30986, 30376, 30577, 31327, 32456, 33579, 34521, 35127, 34596, 33097, 32356, 32815, 33099, 32869, 32970, 33173, 32598, 31627, 31209, 31203, 31165, 31646, 33075, 34362, 34351, 33851, 33979, 33867, 32939, 32594], [31829, 30669, 31856, 35740, 39375, 39740, 37192, 33905, 30615, 27309, 25828, 28117, 32172, 34134, 33636, 32835, 32226, 31247, 30929, 32949, 36809, 39546, 38912, 35996, 33022, 30129, 27197, 26395, 28936, 32122, 33317, 33353, 33289, 32317, 30988, 31742, 34885, 38093, 39389, 37951, 34461, 31087, 28795, 27178, 27320, 30055, 32793, 33287, 33164, 33431, 32566, 31526, 32983, 35873, 37384, 37398, 36571, 34361, 31171, 28549, 27347, 27930, 30388, 33345, 34613, 33805, 32324, 31008, 30670, 32821, 36552, 38689, 38275, 36444, 33725, 30447, 27613, 26821, 28962, 32081, 33215, 32696, 32680, 32886, 32197, 31980, 33912, 36693, 37846, 37125, 35760, 33651, 30086, 26977, 27464, 30352, 31625, 31698, 33144, 34131], [33876, 34033, 32707, 30569, 28982, 28853, 30074, 31869, 33723, 35415, 36178, 35243, 33475, 32646, 33113, 33875, 34236, 34146, 33459, 31717, 29258, 27866, 28702, 30530, 31960, 33698, 36182, 37463, 36253, 34314, 33454, 33141, 32666, 32509, 32569, 31846, 30362, 29357, 29537, 30495, 31748, 33332, 35340, 36963, 36665, 34536, 32768, 32294, 32006, 31806, 32530, 33409, 32913, 31233, 30005, 30131, 31035, 31989, 33128, 34623, 35688, 35479, 34453, 33517, 32696, 32060, 32332, 33243, 33389, 32275, 30725, 29769, 29954, 30968, 32252, 33922, 35694, 36153, 34853, 33351, 32817, 32569, 32072, 32169, 33119, 33605, 32736, 31272, 30271, 30074, 30727, 32217, 34159, 35491, 35097, 33599, 32983, 33511, 33680, 33295], [32501, 32298, 32877, 33053, 32150, 32075, 34033, 35601, 34586, 32699, 31999, 31855, 31675, 31641, 31077, 30517, 31843, 34273, 35300, 34568, 33078, 31773, 31837, 33311, 34614, 34556, 33284, 31823, 31274, 31462, 31329, 31141, 31861, 32856, 33210, 33641, 34608, 35019, 34375, 33389, 32355, 31277, 30652, 31123, 32708, 33965, 33524, 32470, 32326, 32487, 32131, 31818, 32270, 33544, 34881, 35187, 34484, 33548, 32363, 31010, 30416, 30702, 31145, 31794, 33000, 34166, 34285, 33495, 33163, 33629, 33760, 33350, 32993, 32387, 31517, 31558, 32803, 33601, 32771, 31556, 31536, 32270, 32617, 32626, 32927, 33591, 34177, 34311, 34230, 34197, 33277, 30954, 29363, 30457, 32788, 34157, 34129, 33024, 31918, 32077], [30460, 30298, 32917, 35905, 37926, 38548, 37247, 34424, 30980, 27580, 26197, 28707, 32669, 33831, 32352, 31216, 31247, 32080, 33967, 35970, 36643, 36606, 36637, 35560, 32851, 30021, 28348, 28081, 29263, 31255, 32748, 33255, 33252, 33050, 32861, 33178, 34186, 35443, 36425, 36690, 35519, 32667, 29471, 28034, 28945, 30544, 31331, 31887, 33102, 34313, 34173, 32568, 31769, 33974, 37207, 37554, 34965, 32283, 30588, 29470, 29534, 31338, 33179, 33125, 32127, 31817, 31688, 31279, 31642, 33337, 35717, 37601, 37749, 35938, 33029, 29996, 28222, 28934, 31059, 32311, 32485, 32698, 32671, 31960, 31738, 32770, 34206, 35489, 36706, 36951, 35123, 32401, 30792, 29962, 29222, 29692, 31301, 32223, 32327, 32598], [33394, 33675, 33153, 32292, 31951, 32019, 32250, 32712, 32985, 32729, 32531, 32816, 33097, 33122, 33286, 33471, 33186, 32859, 32961, 32718, 31836, 31496, 32038, 32467, 32666, 33138, 33451, 33266, 33057, 32927, 32749, 32765, 33015, 33347, 33419, 32748, 31869, 31674, 31794, 32010, 32833, 33581, 33474, 33340, 33419, 32917, 32447, 32804, 32995, 32580, 32521, 32701, 32333, 31883, 32024, 32522, 33058, 33579, 33924, 33872, 33371, 32701, 32171, 31806, 31673, 31925, 32545, 33402, 34055, 33825, 32807, 32047, 32180, 32559, 32361, 32091, 32665, 33507, 33460, 32879, 32856, 33213, 33118, 32768, 32771, 32898, 32734, 32360, 31950, 31631, 31617, 32189, 33430, 34492, 34235, 33095, 32516, 32697, 32862, 32840], [34583, 32127, 26566, 22435, 23780, 29799, 36138, 40658, 43851, 43898, 37947, 29978, 27524, 29835, 31586, 32967, 34870, 34426, 30338, 24768, 21795, 24704, 31636, 37799, 41870, 44652, 43363, 35773, 28212, 27533, 30274, 31515, 32885, 34733, 33729, 28998, 23767, 22890, 27727, 34211, 38940, 42392, 44119, 40679, 32532, 27277, 28707, 31209, 31595, 33118, 35386, 33790, 27838, 22591, 22907, 28451, 35332, 40982, 44695, 44445, 38102, 29882, 27279, 29415, 30428, 30970, 33625, 35460, 32964, 27300, 23353, 24899, 30346, 35677, 39811, 43309, 43342, 36940, 29528, 28519, 31055, 31660, 32228, 34190, 33891, 29530, 24337, 23096, 26846, 32326, 37300, 42017, 45092, 42381, 33680, 27139, 28315, 31669, 32358, 33223], [38066, 40470, 36112, 25327, 14063, 8533, 10706, 18495, 29675, 42431, 51405, 50775, 43686, 38583, 36996, 36041, 36852, 40203, 41025, 34224, 21978, 11630, 7922, 10742, 19062, 32150, 46102, 53085, 49303, 41356, 37444, 37503, 38466, 40272, 41966, 39469, 30101, 16919, 6903, 4886, 10902, 22689, 37667, 50925, 55357, 49931, 42550, 38595, 36410, 35838, 38152, 39802, 35624, 25250, 13892, 7848, 9119, 15984, 27301, 41507, 52288, 52862, 45998, 40510, 38516, 37292, 37744, 40155, 39736, 32542, 20422, 9636, 5928, 10080, 19396, 32169, 46060, 54216, 51864, 44543, 40061, 38281, 36959, 37424, 39090, 37273, 28952, 17163, 8631, 7402, 12814, 23225, 37360, 50525, 54876, 48918, 40943, 37322, 36428, 36698]], "framecount": 20.0, "time": 1489540260849}
